time	2HRF HbO_1_1	2HRF HbR_1_1	2HRF HbT_1_1	2HRF HbO_1_2	2HRF HbR_1_2	2HRF HbT_1_2	2HRF HbO_2_1	2HRF HbR_2_1	2HRF HbT_2_1	2HRF HbO_3_1	2HRF HbR_3_1	2HRF HbT_3_1	2HRF HbO_3_2	2HRF HbR_3_2	2HRF HbT_3_2	2HRF HbO_3_4	2HRF HbR_3_4	2HRF HbT_3_4	2HRF HbO_4_2	2HRF HbR_4_2	2HRF HbT_4_2	2HRF HbO_4_3	2HRF HbR_4_3	2HRF HbT_4_3	2HRF HbO_4_4	2HRF HbR_4_4	2HRF HbT_4_4	2HRF HbO_5_3	2HRF HbR_5_3	2HRF HbT_5_3	2HRF HbO_5_4	2HRF HbR_5_4	2HRF HbT_5_4	2HRF HbO_6_5	2HRF HbR_6_5	2HRF HbT_6_5	2HRF HbO_6_6	2HRF HbR_6_6	2HRF HbT_6_6	2HRF HbO_7_5	2HRF HbR_7_5	2HRF HbT_7_5	2HRF HbO_8_5	2HRF HbR_8_5	2HRF HbT_8_5	2HRF HbO_8_6	2HRF HbR_8_6	2HRF HbT_8_6	2HRF HbO_8_7	2HRF HbR_8_7	2HRF HbT_8_7	2HRF HbO_9_6	2HRF HbR_9_6	2HRF HbT_9_6	2HRF HbO_9_7	2HRF HbR_9_7	2HRF HbT_9_7	2HRF HbO_9_8	2HRF HbR_9_8	2HRF HbT_9_8	2HRF HbO_10_7	2HRF HbR_10_7	2HRF HbT_10_7	2HRF HbO_10_8	2HRF HbR_10_8	2HRF HbT_10_8	3HRF HbO_1_1	3HRF HbR_1_1	3HRF HbT_1_1	3HRF HbO_1_2	3HRF HbR_1_2	3HRF HbT_1_2	3HRF HbO_2_1	3HRF HbR_2_1	3HRF HbT_2_1	3HRF HbO_3_1	3HRF HbR_3_1	3HRF HbT_3_1	3HRF HbO_3_2	3HRF HbR_3_2	3HRF HbT_3_2	3HRF HbO_3_4	3HRF HbR_3_4	3HRF HbT_3_4	3HRF HbO_4_2	3HRF HbR_4_2	3HRF HbT_4_2	3HRF HbO_4_3	3HRF HbR_4_3	3HRF HbT_4_3	3HRF HbO_4_4	3HRF HbR_4_4	3HRF HbT_4_4	3HRF HbO_5_3	3HRF HbR_5_3	3HRF HbT_5_3	3HRF HbO_5_4	3HRF HbR_5_4	3HRF HbT_5_4	3HRF HbO_6_5	3HRF HbR_6_5	3HRF HbT_6_5	3HRF HbO_6_6	3HRF HbR_6_6	3HRF HbT_6_6	3HRF HbO_7_5	3HRF HbR_7_5	3HRF HbT_7_5	3HRF HbO_8_5	3HRF HbR_8_5	3HRF HbT_8_5	3HRF HbO_8_6	3HRF HbR_8_6	3HRF HbT_8_6	3HRF HbO_8_7	3HRF HbR_8_7	3HRF HbT_8_7	3HRF HbO_9_6	3HRF HbR_9_6	3HRF HbT_9_6	3HRF HbO_9_7	3HRF HbR_9_7	3HRF HbT_9_7	3HRF HbO_9_8	3HRF HbR_9_8	3HRF HbT_9_8	3HRF HbO_10_7	3HRF HbR_10_7	3HRF HbT_10_7	3HRF HbO_10_8	3HRF HbR_10_8	3HRF HbT_10_8	status
-2	-2.89E-06	4.09E-06	1.20E-06	7.39E-06	1.63E-05	2.37E-05	-4.08E-18	-1.32E-17	-1.73E-17	1.11E-05	8.93E-06	2.01E-05	-3.07E-06	1.08E-05	7.71E-06	-1.79E-05	7.72E-06	-1.02E-05	-1.55E-06	3.35E-06	1.80E-06	1.66E-05	3.13E-06	1.97E-05	1.44E-05	6.29E-06	2.07E-05	1.00E-05	9.77E-07	1.10E-05	7.79E-06	8.29E-06	1.61E-05	6.03E-06	1.38E-05	1.99E-05	-2.63E-05	-7.56E-06	-3.39E-05	-1.47E-17	-7.73E-18	-2.24E-17	-2.83E-05	-6.37E-08	-2.83E-05	9.74E-06	2.04E-05	3.01E-05	-1.75E-05	1.96E-05	2.09E-06	-1.61E-05	4.87E-06	-1.13E-05	1.37E-05	1.30E-05	2.67E-05	2.77E-05	8.87E-06	3.65E-05	-3.38E-05	-5.36E-05	-8.74E-05	5.79E-06	-2.56E-06	3.23E-06	-5.45E-06	3.57E-06	-1.87E-06	-1.81E-07	4.65E-08	-1.35E-07	6.07E-18	-3.50E-18	2.57E-18	-1.13E-05	3.62E-06	-7.69E-06	-1.05E-05	-4.91E-06	-1.54E-05	2.67E-06	4.19E-06	6.86E-06	7.44E-06	6.13E-06	1.36E-05	-1.69E-05	-3.95E-06	-2.09E-05	-8.84E-06	-3.58E-06	-1.24E-05	-1.22E-05	-1.64E-06	-1.39E-05	-1.47E-05	-5.81E-06	-2.05E-05	4.29E-05	-6.92E-07	4.22E-05	2.68E-05	9.55E-06	3.63E-05	8.33E-18	-2.58E-18	5.75E-18	6.48E-05	2.06E-05	8.54E-05	3.70E-06	-1.29E-05	-9.23E-06	3.11E-05	2.82E-06	3.40E-05	1.80E-05	3.00E-06	2.10E-05	-3.86E-06	-5.59E-06	-9.45E-06	-1.97E-05	-8.86E-06	-2.85E-05	9.49E-06	4.28E-05	5.23E-05	-7.52E-06	-1.27E-06	-8.79E-06	0
-1.96	-1.92E-06	3.25E-06	1.34E-06	7.86E-06	1.49E-05	2.27E-05	-3.95E-18	-1.31E-17	-1.70E-17	1.26E-05	8.42E-06	2.11E-05	-3.71E-06	9.32E-06	5.61E-06	-1.73E-05	6.40E-06	-1.09E-05	-1.02E-06	2.83E-06	1.81E-06	1.69E-05	3.33E-06	2.02E-05	1.50E-05	6.12E-06	2.11E-05	1.07E-05	1.62E-06	1.23E-05	8.85E-06	8.74E-06	1.76E-05	6.60E-06	1.23E-05	1.89E-05	-2.55E-05	-8.64E-06	-3.41E-05	-1.47E-17	-7.75E-18	-2.25E-17	-2.75E-05	-1.99E-06	-2.95E-05	9.89E-06	1.89E-05	2.87E-05	-1.63E-05	1.77E-05	1.37E-06	-1.59E-05	3.97E-06	-1.19E-05	1.49E-05	1.22E-05	2.71E-05	2.84E-05	9.01E-06	3.74E-05	-3.32E-05	-5.23E-05	-8.55E-05	6.24E-06	-2.54E-06	3.70E-06	-6.09E-06	3.62E-06	-2.46E-06	-5.57E-07	7.97E-07	2.40E-07	6.24E-18	-3.50E-18	2.73E-18	-1.12E-05	3.63E-06	-7.56E-06	-1.06E-05	-4.27E-06	-1.48E-05	2.63E-06	4.67E-06	7.29E-06	7.75E-06	6.36E-06	1.41E-05	-1.64E-05	-3.94E-06	-2.04E-05	-9.14E-06	-3.69E-06	-1.28E-05	-1.16E-05	-1.70E-06	-1.33E-05	-1.43E-05	-5.93E-06	-2.03E-05	3.97E-05	5.30E-07	4.03E-05	2.51E-05	1.04E-05	3.55E-05	8.35E-18	-2.57E-18	5.78E-18	6.23E-05	2.18E-05	8.41E-05	2.76E-06	-1.14E-05	-8.65E-06	2.97E-05	4.61E-06	3.43E-05	1.74E-05	3.76E-06	2.11E-05	-4.10E-06	-4.76E-06	-8.86E-06	-1.96E-05	-8.70E-06	-2.83E-05	9.20E-06	4.20E-05	5.12E-05	-7.63E-06	-1.27E-06	-8.90E-06	0
-1.92	-9.68E-07	2.44E-06	1.47E-06	8.28E-06	1.35E-05	2.18E-05	-3.80E-18	-1.29E-17	-1.67E-17	1.41E-05	7.91E-06	2.20E-05	-4.32E-06	7.88E-06	3.56E-06	-1.66E-05	5.10E-06	-1.15E-05	-5.04E-07	2.32E-06	1.82E-06	1.71E-05	3.52E-06	2.06E-05	1.55E-05	5.95E-06	2.15E-05	1.13E-05	2.25E-06	1.36E-05	9.85E-06	9.15E-06	1.90E-05	7.13E-06	1.08E-05	1.80E-05	-2.46E-05	-9.67E-06	-3.43E-05	-1.47E-17	-7.75E-18	-2.25E-17	-2.68E-05	-3.84E-06	-3.06E-05	1.00E-05	1.73E-05	2.74E-05	-1.51E-05	1.58E-05	6.80E-07	-1.56E-05	3.09E-06	-1.25E-05	1.60E-05	1.14E-05	2.74E-05	2.90E-05	9.13E-06	3.81E-05	-3.25E-05	-5.10E-05	-8.35E-05	6.67E-06	-2.52E-06	4.15E-06	-6.70E-06	3.66E-06	-3.04E-06	-9.19E-07	1.52E-06	6.02E-07	6.37E-18	-3.50E-18	2.87E-18	-1.10E-05	3.64E-06	-7.40E-06	-1.06E-05	-3.63E-06	-1.42E-05	2.57E-06	5.11E-06	7.68E-06	8.01E-06	6.57E-06	1.46E-05	-1.59E-05	-3.91E-06	-1.98E-05	-9.40E-06	-3.78E-06	-1.32E-05	-1.10E-05	-1.75E-06	-1.27E-05	-1.39E-05	-6.02E-06	-2.00E-05	3.66E-05	1.71E-06	3.83E-05	2.34E-05	1.12E-05	3.46E-05	8.34E-18	-2.55E-18	5.79E-18	5.98E-05	2.29E-05	8.27E-05	1.86E-06	-9.89E-06	-8.04E-06	2.82E-05	6.33E-06	3.45E-05	1.66E-05	4.47E-06	2.11E-05	-4.31E-06	-3.93E-06	-8.25E-06	-1.94E-05	-8.52E-06	-2.79E-05	8.87E-06	4.11E-05	5.00E-05	-7.71E-06	-1.27E-06	-8.99E-06	0
-1.88	-4.68E-08	1.65E-06	1.60E-06	8.67E-06	1.21E-05	2.07E-05	-3.64E-18	-1.27E-17	-1.63E-17	1.54E-05	7.41E-06	2.28E-05	-4.90E-06	6.47E-06	1.57E-06	-1.59E-05	3.85E-06	-1.21E-05	-9.96E-09	1.83E-06	1.82E-06	1.73E-05	3.69E-06	2.10E-05	1.60E-05	5.76E-06	2.18E-05	1.19E-05	2.85E-06	1.47E-05	1.08E-05	9.53E-06	2.03E-05	7.63E-06	9.39E-06	1.70E-05	-2.37E-05	-1.06E-05	-3.43E-05	-1.46E-17	-7.71E-18	-2.24E-17	-2.60E-05	-5.61E-06	-3.16E-05	1.01E-05	1.58E-05	2.59E-05	-1.40E-05	1.40E-05	8.73E-09	-1.53E-05	2.24E-06	-1.30E-05	1.70E-05	1.07E-05	2.76E-05	2.95E-05	9.22E-06	3.87E-05	-3.18E-05	-4.96E-05	-8.14E-05	7.06E-06	-2.49E-06	4.57E-06	-7.26E-06	3.68E-06	-3.59E-06	-1.27E-06	2.22E-06	9.52E-07	6.47E-18	-3.48E-18	2.99E-18	-1.09E-05	3.65E-06	-7.23E-06	-1.05E-05	-2.99E-06	-1.35E-05	2.49E-06	5.53E-06	8.01E-06	8.23E-06	6.75E-06	1.50E-05	-1.53E-05	-3.88E-06	-1.92E-05	-9.59E-06	-3.85E-06	-1.34E-05	-1.03E-05	-1.79E-06	-1.21E-05	-1.35E-05	-6.09E-06	-1.96E-05	3.34E-05	2.84E-06	3.63E-05	2.17E-05	1.20E-05	3.37E-05	8.29E-18	-2.52E-18	5.77E-18	5.72E-05	2.39E-05	8.11E-05	1.01E-06	-8.39E-06	-7.39E-06	2.67E-05	7.97E-06	3.46E-05	1.59E-05	5.14E-06	2.10E-05	-4.49E-06	-3.12E-06	-7.61E-06	-1.91E-05	-8.31E-06	-2.74E-05	8.50E-06	4.01E-05	4.86E-05	-7.76E-06	-1.28E-06	-9.04E-06	0
-1.84	8.41E-07	8.83E-07	1.72E-06	9.01E-06	1.07E-05	1.97E-05	-3.48E-18	-1.24E-17	-1.59E-17	1.67E-05	6.90E-06	2.36E-05	-5.46E-06	5.10E-06	-3.61E-07	-1.52E-05	2.63E-06	-1.26E-05	4.62E-07	1.35E-06	1.81E-06	1.74E-05	3.84E-06	2.13E-05	1.65E-05	5.57E-06	2.20E-05	1.24E-05	3.42E-06	1.58E-05	1.17E-05	9.87E-06	2.15E-05	8.10E-06	7.96E-06	1.61E-05	-2.27E-05	-1.15E-05	-3.42E-05	-1.45E-17	-7.65E-18	-2.22E-17	-2.51E-05	-7.30E-06	-3.24E-05	1.01E-05	1.44E-05	2.45E-05	-1.28E-05	1.21E-05	-6.37E-07	-1.49E-05	1.41E-06	-1.35E-05	1.79E-05	9.88E-06	2.78E-05	2.99E-05	9.27E-06	3.92E-05	-3.10E-05	-4.81E-05	-7.91E-05	7.42E-06	-2.46E-06	4.96E-06	-7.79E-06	3.67E-06	-4.11E-06	-1.60E-06	2.88E-06	1.29E-06	6.54E-18	-3.45E-18	3.09E-18	-1.07E-05	3.65E-06	-7.02E-06	-1.05E-05	-2.36E-06	-1.29E-05	2.39E-06	5.91E-06	8.29E-06	8.40E-06	6.89E-06	1.53E-05	-1.47E-05	-3.82E-06	-1.85E-05	-9.73E-06	-3.90E-06	-1.36E-05	-9.64E-06	-1.81E-06	-1.14E-05	-1.31E-05	-6.11E-06	-1.92E-05	3.03E-05	3.92E-06	3.42E-05	2.00E-05	1.26E-05	3.26E-05	8.21E-18	-2.48E-18	5.73E-18	5.45E-05	2.48E-05	7.92E-05	2.12E-07	-6.92E-06	-6.70E-06	2.51E-05	9.52E-06	3.46E-05	1.51E-05	5.76E-06	2.09E-05	-4.64E-06	-2.33E-06	-6.97E-06	-1.88E-05	-8.08E-06	-2.69E-05	8.10E-06	3.89E-05	4.69E-05	-7.78E-06	-1.28E-06	-9.06E-06	0
-1.8	1.69E-06	1.50E-07	1.84E-06	9.30E-06	9.35E-06	1.87E-05	-3.31E-18	-1.21E-17	-1.54E-17	1.78E-05	6.39E-06	2.42E-05	-5.99E-06	3.77E-06	-2.21E-06	-1.45E-05	1.46E-06	-1.30E-05	9.09E-07	8.93E-07	1.80E-06	1.75E-05	3.97E-06	2.15E-05	1.68E-05	5.38E-06	2.22E-05	1.29E-05	3.96E-06	1.68E-05	1.25E-05	1.02E-05	2.26E-05	8.52E-06	6.57E-06	1.51E-05	-2.17E-05	-1.24E-05	-3.41E-05	-1.43E-17	-7.55E-18	-2.19E-17	-2.42E-05	-8.89E-06	-3.31E-05	1.02E-05	1.29E-05	2.30E-05	-1.16E-05	1.04E-05	-1.25E-06	-1.46E-05	6.21E-07	-1.39E-05	1.87E-05	9.11E-06	2.78E-05	3.02E-05	9.29E-06	3.95E-05	-3.02E-05	-4.65E-05	-7.67E-05	7.74E-06	-2.42E-06	5.32E-06	-8.27E-06	3.65E-06	-4.61E-06	-1.91E-06	3.51E-06	1.60E-06	6.57E-18	-3.41E-18	3.16E-18	-1.04E-05	3.64E-06	-6.80E-06	-1.04E-05	-1.75E-06	-1.22E-05	2.26E-06	6.25E-06	8.51E-06	8.52E-06	6.99E-06	1.55E-05	-1.41E-05	-3.75E-06	-1.78E-05	-9.81E-06	-3.92E-06	-1.37E-05	-8.93E-06	-1.82E-06	-1.07E-05	-1.26E-05	-6.11E-06	-1.87E-05	2.73E-05	4.94E-06	3.22E-05	1.83E-05	1.32E-05	3.14E-05	8.10E-18	-2.43E-18	5.66E-18	5.16E-05	2.55E-05	7.72E-05	-5.26E-07	-5.46E-06	-5.99E-06	2.35E-05	1.10E-05	3.45E-05	1.43E-05	6.32E-06	2.06E-05	-4.75E-06	-1.55E-06	-6.30E-06	-1.84E-05	-7.82E-06	-2.62E-05	7.65E-06	3.74E-05	4.51E-05	-7.77E-06	-1.28E-06	-9.05E-06	0
-1.76	2.50E-06	-5.48E-07	1.95E-06	9.54E-06	8.04E-06	1.76E-05	-3.13E-18	-1.17E-17	-1.48E-17	1.89E-05	5.89E-06	2.48E-05	-6.48E-06	2.49E-06	-3.98E-06	-1.37E-05	3.46E-07	-1.34E-05	1.33E-06	4.54E-07	1.78E-06	1.75E-05	4.08E-06	2.16E-05	1.71E-05	5.18E-06	2.23E-05	1.33E-05	4.46E-06	1.77E-05	1.32E-05	1.04E-05	2.36E-05	8.89E-06	5.22E-06	1.41E-05	-2.07E-05	-1.31E-05	-3.38E-05	-1.41E-17	-7.41E-18	-2.15E-17	-2.32E-05	-1.04E-05	-3.36E-05	1.01E-05	1.14E-05	2.16E-05	-1.05E-05	8.63E-06	-1.84E-06	-1.42E-05	-1.35E-07	-1.43E-05	1.95E-05	8.35E-06	2.78E-05	3.04E-05	9.28E-06	3.97E-05	-2.93E-05	-4.48E-05	-7.42E-05	8.02E-06	-2.38E-06	5.64E-06	-8.69E-06	3.61E-06	-5.08E-06	-2.20E-06	4.10E-06	1.90E-06	6.55E-18	-3.35E-18	3.20E-18	-1.02E-05	3.63E-06	-6.54E-06	-1.03E-05	-1.15E-06	-1.14E-05	2.12E-06	6.54E-06	8.67E-06	8.58E-06	7.06E-06	1.56E-05	-1.34E-05	-3.66E-06	-1.70E-05	-9.83E-06	-3.92E-06	-1.38E-05	-8.19E-06	-1.81E-06	-1.00E-05	-1.21E-05	-6.07E-06	-1.81E-05	2.43E-05	5.88E-06	3.02E-05	1.65E-05	1.36E-05	3.01E-05	7.94E-18	-2.37E-18	5.57E-18	4.87E-05	2.61E-05	7.49E-05	-1.20E-06	-4.04E-06	-5.25E-06	2.20E-05	1.23E-05	3.43E-05	1.34E-05	6.82E-06	2.02E-05	-4.83E-06	-7.97E-07	-5.62E-06	-1.79E-05	-7.53E-06	-2.54E-05	7.16E-06	3.59E-05	4.30E-05	-7.71E-06	-1.28E-06	-9.00E-06	0
-1.72	3.26E-06	-1.21E-06	2.05E-06	9.72E-06	6.75E-06	1.65E-05	-2.94E-18	-1.13E-17	-1.42E-17	1.98E-05	5.39E-06	2.52E-05	-6.92E-06	1.27E-06	-5.66E-06	-1.30E-05	-7.11E-07	-1.37E-05	1.72E-06	3.86E-08	1.76E-06	1.74E-05	4.17E-06	2.16E-05	1.73E-05	4.97E-06	2.23E-05	1.36E-05	4.93E-06	1.85E-05	1.38E-05	1.06E-05	2.44E-05	9.21E-06	3.93E-06	1.31E-05	-1.96E-05	-1.37E-05	-3.34E-05	-1.38E-17	-7.25E-18	-2.10E-17	-2.22E-05	-1.17E-05	-3.40E-05	1.00E-05	1.00E-05	2.01E-05	-9.35E-06	6.96E-06	-2.39E-06	-1.37E-05	-8.50E-07	-1.46E-05	2.01E-05	7.59E-06	2.76E-05	3.04E-05	9.23E-06	3.97E-05	-2.84E-05	-4.31E-05	-7.15E-05	8.25E-06	-2.33E-06	5.92E-06	-9.07E-06	3.55E-06	-5.52E-06	-2.46E-06	4.64E-06	2.17E-06	6.50E-18	-3.28E-18	3.22E-18	-9.88E-06	3.61E-06	-6.27E-06	-1.01E-05	-5.60E-07	-1.07E-05	1.96E-06	6.80E-06	8.76E-06	8.59E-06	7.09E-06	1.57E-05	-1.26E-05	-3.56E-06	-1.62E-05	-9.78E-06	-3.90E-06	-1.37E-05	-7.44E-06	-1.78E-06	-9.23E-06	-1.15E-05	-5.99E-06	-1.75E-05	2.14E-05	6.76E-06	2.81E-05	1.48E-05	1.40E-05	2.88E-05	7.75E-18	-2.30E-18	5.44E-18	4.58E-05	2.65E-05	7.23E-05	-1.81E-06	-2.66E-06	-4.48E-06	2.03E-05	1.35E-05	3.39E-05	1.25E-05	7.25E-06	1.98E-05	-4.86E-06	-7.05E-08	-4.93E-06	-1.73E-05	-7.23E-06	-2.45E-05	6.64E-06	3.41E-05	4.08E-05	-7.62E-06	-1.28E-06	-8.91E-06	0
-1.68	3.97E-06	-1.82E-06	2.15E-06	9.85E-06	5.52E-06	1.54E-05	-2.75E-18	-1.08E-17	-1.35E-17	2.06E-05	4.90E-06	2.55E-05	-7.33E-06	1.01E-07	-7.23E-06	-1.22E-05	-1.71E-06	-1.40E-05	2.08E-06	-3.53E-07	1.73E-06	1.73E-05	4.23E-06	2.15E-05	1.74E-05	4.75E-06	2.22E-05	1.39E-05	5.35E-06	1.92E-05	1.43E-05	1.08E-05	2.51E-05	9.48E-06	2.68E-06	1.22E-05	-1.85E-05	-1.43E-05	-3.28E-05	-1.34E-17	-7.04E-18	-2.04E-17	-2.12E-05	-1.30E-05	-3.41E-05	9.94E-06	8.61E-06	1.85E-05	-8.25E-06	5.35E-06	-2.90E-06	-1.32E-05	-1.52E-06	-1.48E-05	2.06E-05	6.84E-06	2.74E-05	3.04E-05	9.14E-06	3.95E-05	-2.74E-05	-4.12E-05	-6.86E-05	8.44E-06	-2.28E-06	6.16E-06	-9.38E-06	3.46E-06	-5.92E-06	-2.71E-06	5.13E-06	2.43E-06	6.40E-18	-3.19E-18	3.21E-18	-9.55E-06	3.59E-06	-5.96E-06	-9.94E-06	6.39E-09	-9.93E-06	1.78E-06	7.01E-06	8.78E-06	8.53E-06	7.08E-06	1.56E-05	-1.19E-05	-3.44E-06	-1.53E-05	-9.67E-06	-3.85E-06	-1.35E-05	-6.67E-06	-1.74E-06	-8.42E-06	-1.09E-05	-5.87E-06	-1.68E-05	1.85E-05	7.56E-06	2.61E-05	1.30E-05	1.42E-05	2.73E-05	7.51E-18	-2.22E-18	5.29E-18	4.27E-05	2.68E-05	6.95E-05	-2.35E-06	-1.32E-06	-3.68E-06	1.87E-05	1.46E-05	3.33E-05	1.16E-05	7.62E-06	1.92E-05	-4.86E-06	6.26E-07	-4.23E-06	-1.67E-05	-6.89E-06	-2.35E-05	6.07E-06	3.22E-05	3.83E-05	-7.50E-06	-1.28E-06	-8.78E-06	0
-1.64	4.63E-06	-2.40E-06	2.23E-06	9.92E-06	4.32E-06	1.42E-05	-2.54E-18	-1.02E-17	-1.28E-17	2.13E-05	4.41E-06	2.57E-05	-7.69E-06	-9.99E-07	-8.69E-06	-1.15E-05	-2.63E-06	-1.41E-05	2.40E-06	-7.18E-07	1.69E-06	1.71E-05	4.27E-06	2.14E-05	1.75E-05	4.53E-06	2.20E-05	1.41E-05	5.72E-06	1.98E-05	1.48E-05	1.08E-05	2.56E-05	9.70E-06	1.50E-06	1.12E-05	-1.74E-05	-1.47E-05	-3.21E-05	-1.29E-17	-6.80E-18	-1.97E-17	-2.01E-05	-1.41E-05	-3.41E-05	9.78E-06	7.26E-06	1.70E-05	-7.17E-06	3.80E-06	-3.37E-06	-1.27E-05	-2.15E-06	-1.49E-05	2.09E-05	6.10E-06	2.70E-05	3.02E-05	9.00E-06	3.92E-05	-2.63E-05	-3.93E-05	-6.56E-05	8.58E-06	-2.22E-06	6.36E-06	-9.64E-06	3.36E-06	-6.28E-06	-2.92E-06	5.58E-06	2.65E-06	6.26E-18	-3.09E-18	3.17E-18	-9.19E-06	3.56E-06	-5.64E-06	-9.70E-06	5.51E-07	-9.15E-06	1.57E-06	7.17E-06	8.74E-06	8.42E-06	7.02E-06	1.54E-05	-1.10E-05	-3.30E-06	-1.43E-05	-9.49E-06	-3.78E-06	-1.33E-05	-5.89E-06	-1.68E-06	-7.57E-06	-1.02E-05	-5.72E-06	-1.59E-05	1.58E-05	8.27E-06	2.40E-05	1.13E-05	1.44E-05	2.57E-05	7.24E-18	-2.13E-18	5.11E-18	3.96E-05	2.69E-05	6.65E-05	-2.82E-06	-3.59E-08	-2.86E-06	1.71E-05	1.56E-05	3.27E-05	1.06E-05	7.91E-06	1.86E-05	-4.81E-06	1.29E-06	-3.52E-06	-1.59E-05	-6.53E-06	-2.25E-05	5.47E-06	3.01E-05	3.56E-05	-7.33E-06	-1.28E-06	-8.61E-06	0
-1.6	5.23E-06	-2.92E-06	2.31E-06	9.93E-06	3.18E-06	1.31E-05	-2.34E-18	-9.61E-18	-1.19E-17	2.18E-05	3.93E-06	2.57E-05	-8.00E-06	-2.03E-06	-1.00E-05	-1.07E-05	-3.48E-06	-1.42E-05	2.69E-06	-1.05E-06	1.64E-06	1.68E-05	4.29E-06	2.11E-05	1.74E-05	4.31E-06	2.17E-05	1.42E-05	6.05E-06	2.02E-05	1.51E-05	1.09E-05	2.60E-05	9.85E-06	3.79E-07	1.02E-05	-1.63E-05	-1.51E-05	-3.13E-05	-1.24E-17	-6.53E-18	-1.89E-17	-1.89E-05	-1.50E-05	-3.40E-05	9.57E-06	5.94E-06	1.55E-05	-6.12E-06	2.33E-06	-3.80E-06	-1.22E-05	-2.72E-06	-1.49E-05	2.12E-05	5.37E-06	2.65E-05	2.98E-05	8.83E-06	3.87E-05	-2.52E-05	-3.73E-05	-6.25E-05	8.67E-06	-2.16E-06	6.51E-06	-9.82E-06	3.23E-06	-6.60E-06	-3.11E-06	5.97E-06	2.86E-06	6.07E-18	-2.97E-18	3.10E-18	-8.80E-06	3.51E-06	-5.28E-06	-9.43E-06	1.07E-06	-8.36E-06	1.35E-06	7.27E-06	8.62E-06	8.24E-06	6.93E-06	1.52E-05	-1.02E-05	-3.14E-06	-1.33E-05	-9.23E-06	-3.68E-06	-1.29E-05	-5.09E-06	-1.60E-06	-6.69E-06	-9.55E-06	-5.52E-06	-1.51E-05	1.31E-05	8.89E-06	2.20E-05	9.61E-06	1.44E-05	2.40E-05	6.93E-18	-2.03E-18	4.90E-18	3.63E-05	2.69E-05	6.32E-05	-3.22E-06	1.20E-06	-2.02E-06	1.55E-05	1.64E-05	3.19E-05	9.66E-06	8.13E-06	1.78E-05	-4.72E-06	1.92E-06	-2.80E-06	-1.51E-05	-6.15E-06	-2.13E-05	4.83E-06	2.78E-05	3.27E-05	-7.12E-06	-1.28E-06	-8.39E-06	0
-1.56	5.76E-06	-3.39E-06	2.37E-06	9.87E-06	2.09E-06	1.20E-05	-2.12E-18	-8.94E-18	-1.11E-17	2.22E-05	3.46E-06	2.56E-05	-8.26E-06	-2.98E-06	-1.12E-05	-9.94E-06	-4.26E-06	-1.42E-05	2.94E-06	-1.36E-06	1.58E-06	1.65E-05	4.27E-06	2.07E-05	1.72E-05	4.08E-06	2.13E-05	1.42E-05	6.33E-06	2.05E-05	1.53E-05	1.08E-05	2.62E-05	9.95E-06	-6.71E-07	9.27E-06	-1.51E-05	-1.53E-05	-3.04E-05	-1.18E-17	-6.22E-18	-1.80E-17	-1.78E-05	-1.58E-05	-3.36E-05	9.32E-06	4.67E-06	1.40E-05	-5.11E-06	9.37E-07	-4.17E-06	-1.16E-05	-3.24E-06	-1.48E-05	2.13E-05	4.66E-06	2.59E-05	2.94E-05	8.61E-06	3.80E-05	-2.40E-05	-3.52E-05	-5.92E-05	8.70E-06	-2.09E-06	6.62E-06	-9.95E-06	3.08E-06	-6.87E-06	-3.27E-06	6.30E-06	3.03E-06	5.84E-18	-2.84E-18	3.00E-18	-8.37E-06	3.46E-06	-4.90E-06	-9.11E-06	1.56E-06	-7.55E-06	1.11E-06	7.33E-06	8.43E-06	8.00E-06	6.78E-06	1.48E-05	-9.30E-06	-2.97E-06	-1.23E-05	-8.91E-06	-3.56E-06	-1.25E-05	-4.28E-06	-1.51E-06	-5.79E-06	-8.83E-06	-5.29E-06	-1.41E-05	1.06E-05	9.42E-06	2.00E-05	7.91E-06	1.43E-05	2.22E-05	6.58E-18	-1.92E-18	4.66E-18	3.31E-05	2.67E-05	5.97E-05	-3.54E-06	2.37E-06	-1.17E-06	1.38E-05	1.71E-05	3.09E-05	8.65E-06	8.28E-06	1.69E-05	-4.59E-06	2.50E-06	-2.09E-06	-1.42E-05	-5.74E-06	-1.99E-05	4.16E-06	2.54E-05	2.96E-05	-6.87E-06	-1.27E-06	-8.14E-06	0
-1.52	6.23E-06	-3.81E-06	2.42E-06	9.75E-06	1.06E-06	1.08E-05	-1.90E-18	-8.22E-18	-1.01E-17	2.24E-05	3.01E-06	2.54E-05	-8.46E-06	-3.86E-06	-1.23E-05	-9.17E-06	-4.95E-06	-1.41E-05	3.16E-06	-1.64E-06	1.52E-06	1.60E-05	4.24E-06	2.03E-05	1.70E-05	3.84E-06	2.08E-05	1.42E-05	6.55E-06	2.07E-05	1.55E-05	1.08E-05	2.62E-05	9.98E-06	-1.65E-06	8.33E-06	-1.39E-05	-1.54E-05	-2.93E-05	-1.11E-17	-5.87E-18	-1.70E-17	-1.65E-05	-1.65E-05	-3.30E-05	9.02E-06	3.45E-06	1.25E-05	-4.14E-06	-3.70E-07	-4.51E-06	-1.10E-05	-3.71E-06	-1.47E-05	2.12E-05	3.97E-06	2.52E-05	2.87E-05	8.35E-06	3.71E-05	-2.27E-05	-3.30E-05	-5.58E-05	8.68E-06	-2.01E-06	6.67E-06	-1.00E-05	2.91E-06	-7.09E-06	-3.40E-06	6.57E-06	3.17E-06	5.57E-18	-2.69E-18	2.88E-18	-7.91E-06	3.40E-06	-4.50E-06	-8.76E-06	2.03E-06	-6.73E-06	8.45E-07	7.33E-06	8.17E-06	7.70E-06	6.59E-06	1.43E-05	-8.37E-06	-2.78E-06	-1.11E-05	-8.52E-06	-3.41E-06	-1.19E-05	-3.46E-06	-1.40E-06	-4.86E-06	-8.07E-06	-5.01E-06	-1.31E-05	8.12E-06	9.86E-06	1.80E-05	6.25E-06	1.41E-05	2.04E-05	6.19E-18	-1.80E-18	4.39E-18	2.98E-05	2.62E-05	5.60E-05	-3.78E-06	3.47E-06	-3.07E-07	1.22E-05	1.76E-05	2.98E-05	7.62E-06	8.34E-06	1.60E-05	-4.42E-06	3.05E-06	-1.37E-06	-1.32E-05	-5.31E-06	-1.85E-05	3.46E-06	2.28E-05	2.63E-05	-6.58E-06	-1.26E-06	-7.84E-06	0
-1.48	6.63E-06	-4.18E-06	2.46E-06	9.56E-06	8.60E-08	9.64E-06	-1.68E-18	-7.45E-18	-9.13E-18	2.25E-05	2.56E-06	2.50E-05	-8.60E-06	-4.65E-06	-1.33E-05	-8.38E-06	-5.56E-06	-1.39E-05	3.33E-06	-1.88E-06	1.45E-06	1.55E-05	4.17E-06	1.97E-05	1.66E-05	3.60E-06	2.02E-05	1.40E-05	6.72E-06	2.08E-05	1.55E-05	1.06E-05	2.61E-05	9.94E-06	-2.55E-06	7.39E-06	-1.27E-05	-1.54E-05	-2.81E-05	-1.04E-17	-5.49E-18	-1.59E-17	-1.53E-05	-1.70E-05	-3.22E-05	8.67E-06	2.28E-06	1.10E-05	-3.20E-06	-1.59E-06	-4.78E-06	-1.03E-05	-4.12E-06	-1.44E-05	2.10E-05	3.30E-06	2.43E-05	2.79E-05	8.05E-06	3.60E-05	-2.14E-05	-3.08E-05	-5.22E-05	8.60E-06	-1.93E-06	6.68E-06	-9.98E-06	2.71E-06	-7.27E-06	-3.50E-06	6.79E-06	3.29E-06	5.25E-18	-2.53E-18	2.72E-18	-7.41E-06	3.33E-06	-4.08E-06	-8.36E-06	2.46E-06	-5.90E-06	5.70E-07	7.27E-06	7.84E-06	7.34E-06	6.36E-06	1.37E-05	-7.41E-06	-2.57E-06	-9.98E-06	-8.05E-06	-3.23E-06	-1.13E-05	-2.64E-06	-1.27E-06	-3.91E-06	-7.28E-06	-4.70E-06	-1.20E-05	5.81E-06	1.02E-05	1.60E-05	4.61E-06	1.38E-05	1.84E-05	5.76E-18	-1.66E-18	4.10E-18	2.64E-05	2.56E-05	5.20E-05	-3.94E-06	4.50E-06	5.61E-07	1.06E-05	1.79E-05	2.85E-05	6.57E-06	8.33E-06	1.49E-05	-4.20E-06	3.55E-06	-6.52E-07	-1.22E-05	-4.85E-06	-1.70E-05	2.73E-06	2.01E-05	2.28E-05	-6.24E-06	-1.25E-06	-7.49E-06	0
-1.44	6.97E-06	-4.49E-06	2.48E-06	9.30E-06	-8.19E-07	8.48E-06	-1.45E-18	-6.63E-18	-8.08E-18	2.24E-05	2.13E-06	2.45E-05	-8.69E-06	-5.36E-06	-1.40E-05	-7.59E-06	-6.09E-06	-1.37E-05	3.46E-06	-2.09E-06	1.37E-06	1.49E-05	4.07E-06	1.90E-05	1.62E-05	3.35E-06	1.95E-05	1.38E-05	6.83E-06	2.06E-05	1.53E-05	1.04E-05	2.57E-05	9.84E-06	-3.37E-06	6.47E-06	-1.14E-05	-1.53E-05	-2.67E-05	-9.60E-18	-5.07E-18	-1.47E-17	-1.39E-05	-1.73E-05	-3.12E-05	8.27E-06	1.17E-06	9.45E-06	-2.30E-06	-2.71E-06	-5.01E-06	-9.61E-06	-4.46E-06	-1.41E-05	2.07E-05	2.65E-06	2.34E-05	2.70E-05	7.70E-06	3.47E-05	-2.01E-05	-2.85E-05	-4.85E-05	8.47E-06	-1.84E-06	6.63E-06	-9.89E-06	2.50E-06	-7.39E-06	-3.57E-06	6.93E-06	3.37E-06	4.89E-18	-2.35E-18	2.54E-18	-6.88E-06	3.25E-06	-3.63E-06	-7.92E-06	2.86E-06	-5.07E-06	2.80E-07	7.16E-06	7.44E-06	6.91E-06	6.08E-06	1.30E-05	-6.43E-06	-2.35E-06	-8.77E-06	-7.53E-06	-3.03E-06	-1.06E-05	-1.81E-06	-1.13E-06	-2.94E-06	-6.46E-06	-4.35E-06	-1.08E-05	3.62E-06	1.04E-05	1.40E-05	3.01E-06	1.34E-05	1.64E-05	5.30E-18	-1.52E-18	3.77E-18	2.30E-05	2.49E-05	4.78E-05	-4.03E-06	5.46E-06	1.43E-06	8.94E-06	1.81E-05	2.70E-05	5.51E-06	8.23E-06	1.37E-05	-3.95E-06	4.00E-06	5.63E-08	-1.10E-05	-4.37E-06	-1.54E-05	1.98E-06	1.72E-05	1.92E-05	-5.87E-06	-1.24E-06	-7.11E-06	0
-1.4	7.22E-06	-4.73E-06	2.49E-06	8.97E-06	-1.66E-06	7.32E-06	-1.22E-18	-5.77E-18	-6.99E-18	2.21E-05	1.71E-06	2.38E-05	-8.71E-06	-5.97E-06	-1.47E-05	-6.80E-06	-6.52E-06	-1.33E-05	3.55E-06	-2.27E-06	1.29E-06	1.42E-05	3.95E-06	1.82E-05	1.56E-05	3.09E-06	1.87E-05	1.35E-05	6.89E-06	2.04E-05	1.51E-05	1.01E-05	2.52E-05	9.66E-06	-4.10E-06	5.56E-06	-1.01E-05	-1.51E-05	-2.52E-05	-8.74E-18	-4.63E-18	-1.34E-17	-1.26E-05	-1.74E-05	-3.00E-05	7.83E-06	1.24E-07	7.96E-06	-1.45E-06	-3.73E-06	-5.18E-06	-8.89E-06	-4.75E-06	-1.36E-05	2.02E-05	2.02E-06	2.23E-05	2.59E-05	7.31E-06	3.32E-05	-1.86E-05	-2.60E-05	-4.47E-05	8.28E-06	-1.75E-06	6.53E-06	-9.72E-06	2.26E-06	-7.46E-06	-3.60E-06	7.02E-06	3.42E-06	4.49E-18	-2.16E-18	2.33E-18	-6.33E-06	3.16E-06	-3.17E-06	-7.45E-06	3.22E-06	-4.23E-06	-2.27E-08	6.99E-06	6.97E-06	6.43E-06	5.76E-06	1.22E-05	-5.42E-06	-2.11E-06	-7.52E-06	-6.93E-06	-2.80E-06	-9.74E-06	-9.93E-07	-9.67E-07	-1.96E-06	-5.61E-06	-3.96E-06	-9.58E-06	1.57E-06	1.05E-05	1.21E-05	1.46E-06	1.28E-05	1.43E-05	4.80E-18	-1.37E-18	3.43E-18	1.96E-05	2.39E-05	4.34E-05	-4.04E-06	6.33E-06	2.29E-06	7.34E-06	1.81E-05	2.55E-05	4.43E-06	8.05E-06	1.25E-05	-3.65E-06	4.40E-06	7.54E-07	-9.83E-06	-3.87E-06	-1.37E-05	1.21E-06	1.43E-05	1.55E-05	-5.46E-06	-1.22E-06	-6.68E-06	0
-1.36	7.41E-06	-4.92E-06	2.48E-06	8.58E-06	-2.42E-06	6.16E-06	-9.83E-19	-4.87E-18	-5.86E-18	2.17E-05	1.31E-06	2.30E-05	-8.67E-06	-6.50E-06	-1.52E-05	-6.01E-06	-6.86E-06	-1.29E-05	3.60E-06	-2.41E-06	1.19E-06	1.34E-05	3.80E-06	1.72E-05	1.49E-05	2.83E-06	1.78E-05	1.31E-05	6.88E-06	2.00E-05	1.48E-05	9.74E-06	2.45E-05	9.42E-06	-4.75E-06	4.67E-06	-8.87E-06	-1.47E-05	-2.36E-05	-7.82E-18	-4.15E-18	-1.20E-17	-1.12E-05	-1.74E-05	-2.86E-05	7.34E-06	-8.62E-07	6.48E-06	-6.42E-07	-4.66E-06	-5.30E-06	-8.13E-06	-4.97E-06	-1.31E-05	1.96E-05	1.41E-06	2.10E-05	2.47E-05	6.87E-06	3.15E-05	-1.71E-05	-2.36E-05	-4.07E-05	8.02E-06	-1.64E-06	6.38E-06	-9.48E-06	2.01E-06	-7.47E-06	-3.60E-06	7.03E-06	3.43E-06	4.06E-18	-1.95E-18	2.10E-18	-5.74E-06	3.06E-06	-2.68E-06	-6.93E-06	3.54E-06	-3.39E-06	-3.35E-07	6.77E-06	6.43E-06	5.89E-06	5.40E-06	1.13E-05	-4.39E-06	-1.85E-06	-6.24E-06	-6.27E-06	-2.55E-06	-8.83E-06	-1.78E-07	-7.94E-07	-9.72E-07	-4.74E-06	-3.54E-06	-8.28E-06	-3.47E-07	1.06E-05	1.02E-05	-4.22E-08	1.21E-05	1.21E-05	4.27E-18	-1.21E-18	3.05E-18	1.61E-05	2.27E-05	3.89E-05	-3.97E-06	7.11E-06	3.14E-06	5.76E-06	1.80E-05	2.37E-05	3.35E-06	7.80E-06	1.11E-05	-3.31E-06	4.75E-06	1.44E-06	-8.56E-06	-3.36E-06	-1.19E-05	4.22E-07	1.12E-05	1.16E-05	-5.01E-06	-1.20E-06	-6.20E-06	0
-1.32	7.51E-06	-5.05E-06	2.46E-06	8.12E-06	-3.12E-06	5.00E-06	-7.48E-19	-3.94E-18	-4.69E-18	2.11E-05	9.23E-07	2.20E-05	-8.56E-06	-6.92E-06	-1.55E-05	-5.22E-06	-7.11E-06	-1.23E-05	3.61E-06	-2.51E-06	1.09E-06	1.26E-05	3.62E-06	1.62E-05	1.42E-05	2.57E-06	1.67E-05	1.26E-05	6.82E-06	1.94E-05	1.43E-05	9.32E-06	2.36E-05	9.11E-06	-5.31E-06	3.80E-06	-7.58E-06	-1.42E-05	-2.18E-05	-6.85E-18	-3.64E-18	-1.05E-17	-9.79E-06	-1.72E-05	-2.70E-05	6.81E-06	-1.78E-06	5.02E-06	1.18E-07	-5.48E-06	-5.36E-06	-7.34E-06	-5.13E-06	-1.25E-05	1.89E-05	8.34E-07	1.97E-05	2.33E-05	6.40E-06	2.97E-05	-1.56E-05	-2.10E-05	-3.66E-05	7.71E-06	-1.54E-06	6.17E-06	-9.16E-06	1.74E-06	-7.42E-06	-3.57E-06	6.98E-06	3.42E-06	3.58E-18	-1.74E-18	1.85E-18	-5.12E-06	2.94E-06	-2.18E-06	-6.38E-06	3.82E-06	-2.56E-06	-6.54E-07	6.49E-06	5.83E-06	5.30E-06	4.99E-06	1.03E-05	-3.34E-06	-1.59E-06	-4.93E-06	-5.56E-06	-2.28E-06	-7.84E-06	6.26E-07	-6.10E-07	1.64E-08	-3.85E-06	-3.09E-06	-6.94E-06	-2.12E-06	1.05E-05	8.35E-06	-1.49E-06	1.14E-05	9.87E-06	3.70E-18	-1.04E-18	2.66E-18	1.27E-05	2.14E-05	3.41E-05	-3.83E-06	7.80E-06	3.97E-06	4.20E-06	1.77E-05	2.19E-05	2.27E-06	7.46E-06	9.73E-06	-2.94E-06	5.05E-06	2.10E-06	-7.24E-06	-2.83E-06	-1.01E-05	-3.73E-07	8.01E-06	7.63E-06	-4.52E-06	-1.17E-06	-5.69E-06	0
-1.28	7.54E-06	-5.12E-06	2.42E-06	7.59E-06	-3.74E-06	3.86E-06	-5.12E-19	-2.98E-18	-3.49E-18	2.03E-05	5.52E-07	2.09E-05	-8.39E-06	-7.26E-06	-1.56E-05	-4.43E-06	-7.27E-06	-1.17E-05	3.57E-06	-2.58E-06	9.86E-07	1.17E-05	3.41E-06	1.51E-05	1.33E-05	2.30E-06	1.56E-05	1.20E-05	6.69E-06	1.87E-05	1.37E-05	8.84E-06	2.25E-05	8.73E-06	-5.78E-06	2.95E-06	-6.28E-06	-1.36E-05	-1.99E-05	-5.82E-18	-3.11E-18	-8.93E-18	-8.35E-06	-1.69E-05	-2.52E-05	6.23E-06	-2.63E-06	3.59E-06	8.28E-07	-6.19E-06	-5.36E-06	-6.52E-06	-5.23E-06	-1.17E-05	1.79E-05	2.82E-07	1.82E-05	2.17E-05	5.88E-06	2.76E-05	-1.40E-05	-1.84E-05	-3.24E-05	7.34E-06	-1.42E-06	5.92E-06	-8.77E-06	1.45E-06	-7.31E-06	-3.50E-06	6.87E-06	3.37E-06	3.08E-18	-1.51E-18	1.57E-18	-4.48E-06	2.81E-06	-1.67E-06	-5.79E-06	4.06E-06	-1.74E-06	-9.78E-07	6.15E-06	5.17E-06	4.65E-06	4.54E-06	9.20E-06	-2.29E-06	-1.31E-06	-3.60E-06	-4.79E-06	-1.99E-06	-6.78E-06	1.41E-06	-4.14E-07	1.00E-06	-2.94E-06	-2.61E-06	-5.55E-06	-3.76E-06	1.03E-05	6.52E-06	-2.87E-06	1.05E-05	7.60E-06	3.12E-18	-8.69E-19	2.25E-18	9.22E-06	1.99E-05	2.91E-05	-3.62E-06	8.40E-06	4.77E-06	2.67E-06	1.72E-05	1.98E-05	1.19E-06	7.05E-06	8.23E-06	-2.54E-06	5.28E-06	2.74E-06	-5.86E-06	-2.28E-06	-8.14E-06	-1.17E-06	4.77E-06	3.60E-06	-4.00E-06	-1.14E-06	-5.14E-06	0
-1.24	7.49E-06	-5.12E-06	2.37E-06	7.01E-06	-4.28E-06	2.72E-06	-2.77E-19	-2.00E-18	-2.28E-18	1.94E-05	1.98E-07	1.96E-05	-8.15E-06	-7.50E-06	-1.56E-05	-3.65E-06	-7.33E-06	-1.10E-05	3.49E-06	-2.62E-06	8.74E-07	1.07E-05	3.18E-06	1.39E-05	1.23E-05	2.02E-06	1.44E-05	1.13E-05	6.50E-06	1.78E-05	1.30E-05	8.29E-06	2.13E-05	8.28E-06	-6.16E-06	2.12E-06	-4.97E-06	-1.29E-05	-1.79E-05	-4.76E-18	-2.55E-18	-7.31E-18	-6.89E-06	-1.64E-05	-2.32E-05	5.60E-06	-3.41E-06	2.19E-06	1.49E-06	-6.80E-06	-5.31E-06	-5.67E-06	-5.26E-06	-1.09E-05	1.69E-05	-2.42E-07	1.66E-05	2.00E-05	5.32E-06	2.54E-05	-1.23E-05	-1.58E-05	-2.81E-05	6.91E-06	-1.30E-06	5.61E-06	-8.30E-06	1.15E-06	-7.15E-06	-3.40E-06	6.68E-06	3.28E-06	2.55E-18	-1.27E-18	1.28E-18	-3.81E-06	2.67E-06	-1.14E-06	-5.17E-06	4.25E-06	-9.21E-07	-1.30E-06	5.76E-06	4.45E-06	3.96E-06	4.06E-06	8.02E-06	-1.23E-06	-1.02E-06	-2.25E-06	-3.97E-06	-1.68E-06	-5.65E-06	2.18E-06	-2.09E-07	1.97E-06	-2.01E-06	-2.10E-06	-4.12E-06	-5.25E-06	9.97E-06	4.73E-06	-4.19E-06	9.49E-06	5.30E-06	2.51E-18	-6.89E-19	1.82E-18	5.80E-06	1.82E-05	2.40E-05	-3.35E-06	8.90E-06	5.54E-06	1.18E-06	1.65E-05	1.77E-05	1.16E-07	6.56E-06	6.68E-06	-2.10E-06	5.46E-06	3.36E-06	-4.44E-06	-1.72E-06	-6.16E-06	-1.97E-06	1.50E-06	-4.69E-07	-3.45E-06	-1.10E-06	-4.55E-06	0
-1.2	7.37E-06	-5.07E-06	2.30E-06	6.36E-06	-4.75E-06	1.60E-06	-4.35E-20	-1.01E-18	-1.05E-18	1.83E-05	-1.40E-07	1.82E-05	-7.84E-06	-7.64E-06	-1.55E-05	-2.86E-06	-7.31E-06	-1.02E-05	3.37E-06	-2.62E-06	7.55E-07	9.60E-06	2.92E-06	1.25E-05	1.13E-05	1.74E-06	1.30E-05	1.06E-05	6.26E-06	1.68E-05	1.22E-05	7.67E-06	1.99E-05	7.76E-06	-6.45E-06	1.31E-06	-3.67E-06	-1.20E-05	-1.57E-05	-3.66E-18	-1.98E-18	-5.64E-18	-5.40E-06	-1.57E-05	-2.11E-05	4.94E-06	-4.12E-06	8.20E-07	2.10E-06	-7.30E-06	-5.20E-06	-4.80E-06	-5.22E-06	-1.00E-05	1.57E-05	-7.37E-07	1.49E-05	1.82E-05	4.72E-06	2.29E-05	-1.06E-05	-1.30E-05	-2.37E-05	6.42E-06	-1.17E-06	5.25E-06	-7.76E-06	8.40E-07	-6.92E-06	-3.27E-06	6.43E-06	3.16E-06	1.99E-18	-1.02E-18	9.66E-19	-3.12E-06	2.51E-06	-6.13E-07	-4.52E-06	4.40E-06	-1.21E-07	-1.62E-06	5.31E-06	3.69E-06	3.23E-06	3.54E-06	6.77E-06	-1.66E-07	-7.25E-07	-8.91E-07	-3.11E-06	-1.35E-06	-4.46E-06	2.92E-06	3.11E-09	2.93E-06	-1.08E-06	-1.58E-06	-2.66E-06	-6.59E-06	9.57E-06	2.97E-06	-5.43E-06	8.41E-06	2.98E-06	1.88E-18	-5.04E-19	1.37E-18	2.41E-06	1.64E-05	1.88E-05	-3.02E-06	9.29E-06	6.27E-06	-2.70E-07	1.57E-05	1.54E-05	-9.38E-07	6.01E-06	5.07E-06	-1.64E-06	5.58E-06	3.94E-06	-2.98E-06	-1.16E-06	-4.14E-06	-2.76E-06	-1.79E-06	-4.55E-06	-2.87E-06	-1.06E-06	-3.93E-06	0
-1.16	7.16E-06	-4.96E-06	2.21E-06	5.65E-06	-5.15E-06	4.99E-07	1.86E-19	-8.28E-21	1.78E-19	1.70E-05	-4.59E-07	1.66E-05	-7.46E-06	-7.69E-06	-1.51E-05	-2.08E-06	-7.19E-06	-9.27E-06	3.22E-06	-2.58E-06	6.31E-07	8.45E-06	2.63E-06	1.11E-05	1.01E-05	1.46E-06	1.16E-05	9.73E-06	5.95E-06	1.57E-05	1.13E-05	6.99E-06	1.82E-05	7.18E-06	-6.65E-06	5.26E-07	-2.36E-06	-1.11E-05	-1.35E-05	-2.53E-18	-1.39E-18	-3.92E-18	-3.91E-06	-1.48E-05	-1.87E-05	4.24E-06	-4.76E-06	-5.14E-07	2.66E-06	-7.69E-06	-5.04E-06	-3.90E-06	-5.13E-06	-9.03E-06	1.43E-05	-1.20E-06	1.31E-05	1.62E-05	4.09E-06	2.03E-05	-8.89E-06	-1.03E-05	-1.92E-05	5.88E-06	-1.04E-06	4.84E-06	-7.15E-06	5.18E-07	-6.64E-06	-3.10E-06	6.11E-06	3.01E-06	1.41E-18	-7.67E-19	6.42E-19	-2.41E-06	2.34E-06	-7.74E-08	-3.84E-06	4.50E-06	6.62E-07	-1.94E-06	4.82E-06	2.88E-06	2.46E-06	2.99E-06	5.45E-06	8.86E-07	-4.22E-07	4.64E-07	-2.21E-06	-1.01E-06	-3.22E-06	3.64E-06	2.20E-07	3.86E-06	-1.50E-07	-1.03E-06	-1.18E-06	-7.79E-06	9.06E-06	1.26E-06	-6.59E-06	7.23E-06	6.44E-07	1.23E-18	-3.16E-19	9.14E-19	-9.27E-07	1.44E-05	1.35E-05	-2.64E-06	9.58E-06	6.95E-06	-1.68E-06	1.47E-05	1.30E-05	-1.97E-06	5.38E-06	3.41E-06	-1.16E-06	5.64E-06	4.49E-06	-1.50E-06	-5.87E-07	-2.08E-06	-3.53E-06	-5.08E-06	-8.60E-06	-2.26E-06	-1.02E-06	-3.28E-06	0
-1.12	6.89E-06	-4.79E-06	2.10E-06	4.89E-06	-5.47E-06	-5.83E-07	4.12E-19	9.90E-19	1.40E-18	1.56E-05	-7.61E-07	1.49E-05	-7.02E-06	-7.64E-06	-1.47E-05	-1.30E-06	-6.99E-06	-8.29E-06	3.02E-06	-2.52E-06	5.03E-07	7.24E-06	2.32E-06	9.56E-06	8.90E-06	1.17E-06	1.01E-05	8.79E-06	5.58E-06	1.44E-05	1.02E-05	6.25E-06	1.65E-05	6.53E-06	-6.77E-06	-2.35E-07	-1.06E-06	-1.00E-05	-1.11E-05	-1.37E-18	-7.89E-19	-2.16E-18	-2.40E-06	-1.38E-05	-1.62E-05	3.51E-06	-5.32E-06	-1.81E-06	3.16E-06	-7.98E-06	-4.82E-06	-2.98E-06	-4.97E-06	-7.96E-06	1.29E-05	-1.64E-06	1.12E-05	1.41E-05	3.42E-06	1.75E-05	-7.10E-06	-7.51E-06	-1.46E-05	5.29E-06	-9.00E-07	4.39E-06	-6.48E-06	1.88E-07	-6.29E-06	-2.91E-06	5.74E-06	2.83E-06	8.14E-19	-5.06E-19	3.08E-19	-1.69E-06	2.15E-06	4.59E-07	-3.13E-06	4.55E-06	1.42E-06	-2.25E-06	4.27E-06	2.03E-06	1.67E-06	2.40E-06	4.07E-06	1.92E-06	-1.15E-07	1.81E-06	-1.28E-06	-6.51E-07	-1.93E-06	4.31E-06	4.40E-07	4.75E-06	7.80E-07	-4.64E-07	3.15E-07	-8.85E-06	8.45E-06	-4.06E-07	-7.66E-06	5.98E-06	-1.68E-06	5.74E-19	-1.25E-19	4.49E-19	-4.20E-06	1.23E-05	8.11E-06	-2.20E-06	9.77E-06	7.57E-06	-3.04E-06	1.36E-05	1.05E-05	-2.98E-06	4.70E-06	1.72E-06	-6.52E-07	5.64E-06	4.99E-06	4.97E-09	-1.31E-08	-8.10E-09	-4.27E-06	-8.33E-06	-1.26E-05	-1.63E-06	-9.61E-07	-2.59E-06	0
-1.08	6.53E-06	-4.56E-06	1.97E-06	4.08E-06	-5.72E-06	-1.64E-06	6.31E-19	1.98E-18	2.61E-18	1.40E-05	-1.05E-06	1.30E-05	-6.51E-06	-7.50E-06	-1.40E-05	-5.32E-07	-6.70E-06	-7.23E-06	2.79E-06	-2.42E-06	3.70E-07	5.96E-06	1.99E-06	7.95E-06	7.58E-06	8.75E-07	8.45E-06	7.77E-06	5.16E-06	1.29E-05	9.07E-06	5.45E-06	1.45E-05	5.82E-06	-6.79E-06	-9.72E-07	2.26E-07	-8.87E-06	-8.64E-06	-2.06E-19	-1.79E-19	-3.85E-19	-8.93E-07	-1.26E-05	-1.35E-05	2.74E-06	-5.80E-06	-3.06E-06	3.62E-06	-8.16E-06	-4.54E-06	-2.05E-06	-4.76E-06	-6.81E-06	1.13E-05	-2.04E-06	9.22E-06	1.19E-05	2.73E-06	1.46E-05	-5.27E-06	-4.69E-06	-9.96E-06	4.64E-06	-7.54E-07	3.89E-06	-5.74E-06	-1.46E-07	-5.88E-06	-2.68E-06	5.29E-06	2.61E-06	2.08E-19	-2.41E-19	-3.24E-20	-9.53E-07	1.95E-06	9.93E-07	-2.39E-06	4.55E-06	2.16E-06	-2.54E-06	3.69E-06	1.15E-06	8.45E-07	1.80E-06	2.64E-06	2.94E-06	1.95E-07	3.13E-06	-3.33E-07	-2.86E-07	-6.19E-07	4.94E-06	6.61E-07	5.60E-06	1.70E-06	1.08E-07	1.81E-06	-9.77E-06	7.74E-06	-2.03E-06	-8.65E-06	4.66E-06	-3.99E-06	-8.84E-20	6.70E-20	-2.14E-20	-7.40E-06	1.01E-05	2.66E-06	-1.73E-06	9.85E-06	8.12E-06	-4.34E-06	1.23E-05	7.96E-06	-3.95E-06	3.96E-06	1.46E-08	-1.34E-07	5.58E-06	5.45E-06	1.51E-06	5.59E-07	2.07E-06	-4.98E-06	-1.15E-05	-1.65E-05	-9.87E-07	-9.00E-07	-1.89E-06	0
-1.04	6.11E-06	-4.28E-06	1.83E-06	3.22E-06	-5.89E-06	-2.67E-06	8.43E-19	2.95E-18	3.79E-18	1.23E-05	-1.31E-06	1.10E-05	-5.93E-06	-7.28E-06	-1.32E-05	2.33E-07	-6.33E-06	-6.10E-06	2.52E-06	-2.29E-06	2.34E-07	4.63E-06	1.63E-06	6.26E-06	6.18E-06	5.77E-07	6.76E-06	6.68E-06	4.68E-06	1.14E-05	7.83E-06	4.60E-06	1.24E-05	5.05E-06	-6.73E-06	-1.68E-06	1.50E-06	-7.61E-06	-6.11E-06	9.65E-19	4.34E-19	1.40E-18	6.16E-07	-1.13E-05	-1.07E-05	1.95E-06	-6.22E-06	-4.27E-06	4.03E-06	-8.24E-06	-4.22E-06	-1.10E-06	-4.49E-06	-5.58E-06	9.55E-06	-2.42E-06	7.13E-06	9.55E-06	2.00E-06	1.15E-05	-3.40E-06	-1.85E-06	-5.25E-06	3.94E-06	-6.02E-07	3.34E-06	-4.93E-06	-4.81E-07	-5.42E-06	-2.42E-06	4.79E-06	2.37E-06	-4.04E-19	2.76E-20	-3.76E-19	-2.07E-07	1.73E-06	1.52E-06	-1.64E-06	4.50E-06	2.86E-06	-2.81E-06	3.06E-06	2.48E-07	8.47E-09	1.17E-06	1.18E-06	3.93E-06	5.04E-07	4.43E-06	6.30E-07	8.44E-08	7.14E-07	5.53E-06	8.79E-07	6.41E-06	2.61E-06	6.85E-07	3.29E-06	-1.06E-05	6.95E-06	-3.60E-06	-9.53E-06	3.28E-06	-6.25E-06	-7.51E-19	2.58E-19	-4.93E-19	-1.05E-05	7.70E-06	-2.81E-06	-1.22E-06	9.81E-06	8.59E-06	-5.59E-06	1.09E-05	5.29E-06	-4.88E-06	3.17E-06	-1.70E-06	3.93E-07	5.46E-06	5.85E-06	3.01E-06	1.13E-06	4.14E-06	-5.66E-06	-1.46E-05	-2.03E-05	-3.27E-07	-8.31E-07	-1.16E-06	0
-1	5.61E-06	-3.95E-06	1.67E-06	2.32E-06	-5.99E-06	-3.67E-06	1.05E-18	3.89E-18	4.94E-18	1.05E-05	-1.56E-06	8.90E-06	-5.29E-06	-6.96E-06	-1.23E-05	9.90E-07	-5.89E-06	-4.90E-06	2.23E-06	-2.13E-06	9.46E-08	3.24E-06	1.26E-06	4.50E-06	4.71E-06	2.74E-07	4.99E-06	5.51E-06	4.15E-06	9.66E-06	6.50E-06	3.69E-06	1.02E-05	4.23E-06	-6.60E-06	-2.37E-06	2.76E-06	-6.26E-06	-3.51E-06	2.13E-18	1.05E-18	3.18E-18	2.12E-06	-9.89E-06	-7.77E-06	1.13E-06	-6.55E-06	-5.42E-06	4.38E-06	-8.22E-06	-3.84E-06	-1.34E-07	-4.16E-06	-4.30E-06	7.73E-06	-2.76E-06	4.96E-06	7.09E-06	1.26E-06	8.35E-06	-1.50E-06	1.01E-06	-4.94E-07	3.21E-06	-4.43E-07	2.76E-06	-4.08E-06	-8.16E-07	-4.89E-06	-2.14E-06	4.24E-06	2.09E-06	-1.02E-18	2.97E-19	-7.19E-19	5.44E-07	1.49E-06	2.04E-06	-8.74E-07	4.41E-06	3.53E-06	-3.06E-06	2.39E-06	-6.67E-07	-8.37E-07	5.24E-07	-3.13E-07	4.88E-06	8.10E-07	5.69E-06	1.60E-06	4.58E-07	2.05E-06	6.06E-06	1.09E-06	7.15E-06	3.49E-06	1.26E-06	4.75E-06	-1.12E-05	6.07E-06	-5.13E-06	-1.03E-05	1.85E-06	-8.46E-06	-1.41E-18	4.48E-19	-9.62E-19	-1.35E-05	5.24E-06	-8.27E-06	-6.91E-07	9.67E-06	8.98E-06	-6.77E-06	9.33E-06	2.56E-06	-5.76E-06	2.34E-06	-3.42E-06	9.24E-07	5.28E-06	6.20E-06	4.49E-06	1.69E-06	6.18E-06	-6.28E-06	-1.76E-05	-2.39E-05	3.42E-07	-7.54E-07	-4.12E-07	0
-0.96	5.05E-06	-3.57E-06	1.48E-06	1.39E-06	-6.03E-06	-4.64E-06	1.24E-18	4.80E-18	6.04E-18	8.48E-06	-1.79E-06	6.68E-06	-4.59E-06	-6.57E-06	-1.12E-05	1.74E-06	-5.37E-06	-3.63E-06	1.90E-06	-1.95E-06	-4.65E-08	1.81E-06	8.74E-07	2.68E-06	3.18E-06	-3.26E-08	3.15E-06	4.26E-06	3.57E-06	7.84E-06	5.08E-06	2.74E-06	7.82E-06	3.35E-06	-6.38E-06	-3.03E-06	3.99E-06	-4.84E-06	-8.43E-07	3.28E-18	1.65E-18	4.94E-18	3.61E-06	-8.33E-06	-4.72E-06	2.98E-07	-6.82E-06	-6.52E-06	4.69E-06	-8.11E-06	-3.42E-06	8.38E-07	-3.79E-06	-2.95E-06	5.80E-06	-3.08E-06	2.72E-06	4.54E-06	4.90E-07	5.03E-06	4.23E-07	3.87E-06	4.29E-06	2.42E-06	-2.79E-07	2.14E-06	-3.16E-06	-1.15E-06	-4.31E-06	-1.84E-06	3.63E-06	1.79E-06	-1.62E-18	5.65E-19	-1.06E-18	1.30E-06	1.24E-06	2.54E-06	-9.25E-08	4.26E-06	4.17E-06	-3.28E-06	1.69E-06	-1.59E-06	-1.68E-06	-1.33E-07	-1.82E-06	5.79E-06	1.11E-06	6.90E-06	2.56E-06	8.31E-07	3.39E-06	6.53E-06	1.30E-06	7.83E-06	4.34E-06	1.83E-06	6.18E-06	-1.17E-05	5.12E-06	-6.62E-06	-1.10E-05	3.80E-07	-1.06E-05	-2.06E-18	6.34E-19	-1.42E-18	-1.64E-05	2.69E-06	-1.37E-05	-1.44E-07	9.42E-06	9.28E-06	-7.89E-06	7.67E-06	-2.28E-07	-6.58E-06	1.47E-06	-5.11E-06	1.45E-06	5.04E-06	6.49E-06	5.94E-06	2.23E-06	8.17E-06	-6.84E-06	-2.04E-05	-2.72E-05	1.02E-06	-6.69E-07	3.46E-07	0
-0.92	4.43E-06	-3.14E-06	1.28E-06	4.24E-07	-6.00E-06	-5.57E-06	1.42E-18	5.66E-18	7.08E-18	6.36E-06	-2.01E-06	4.35E-06	-3.83E-06	-6.10E-06	-9.93E-06	2.48E-06	-4.78E-06	-2.30E-06	1.55E-06	-1.74E-06	-1.89E-07	3.33E-07	4.70E-07	8.03E-07	1.59E-06	-3.43E-07	1.25E-06	2.96E-06	2.94E-06	5.90E-06	3.59E-06	1.74E-06	5.34E-06	2.42E-06	-6.09E-06	-3.67E-06	5.20E-06	-3.34E-06	1.87E-06	4.41E-18	2.25E-18	6.66E-18	5.08E-06	-6.65E-06	-1.57E-06	-5.52E-07	-7.02E-06	-7.57E-06	4.95E-06	-7.91E-06	-2.96E-06	1.82E-06	-3.37E-06	-1.55E-06	3.79E-06	-3.36E-06	4.22E-07	1.91E-06	-2.93E-07	1.62E-06	2.37E-06	6.73E-06	9.10E-06	1.61E-06	-1.10E-07	1.50E-06	-2.20E-06	-1.47E-06	-3.67E-06	-1.50E-06	2.97E-06	1.47E-06	-2.22E-18	8.30E-19	-1.39E-18	2.05E-06	9.73E-07	3.02E-06	6.99E-07	4.06E-06	4.76E-06	-3.47E-06	9.68E-07	-2.50E-06	-2.52E-06	-7.97E-07	-3.32E-06	6.64E-06	1.40E-06	8.05E-06	3.50E-06	1.20E-06	4.70E-06	6.94E-06	1.49E-06	8.43E-06	5.17E-06	2.39E-06	7.55E-06	-1.21E-05	4.09E-06	-8.05E-06	-1.15E-05	-1.11E-06	-1.27E-05	-2.69E-18	8.16E-19	-1.88E-18	-1.91E-05	8.16E-08	-1.90E-05	4.09E-07	9.06E-06	9.47E-06	-8.94E-06	5.89E-06	-3.05E-06	-7.35E-06	5.77E-07	-6.77E-06	1.97E-06	4.74E-06	6.71E-06	7.35E-06	2.76E-06	1.01E-05	-7.34E-06	-2.30E-05	-3.03E-05	1.69E-06	-5.75E-07	1.11E-06	0
-0.88	3.74E-06	-2.68E-06	1.06E-06	-5.61E-07	-5.91E-06	-6.47E-06	1.59E-18	6.46E-18	8.06E-18	4.14E-06	-2.21E-06	1.93E-06	-3.01E-06	-5.55E-06	-8.56E-06	3.21E-06	-4.14E-06	-9.26E-07	1.18E-06	-1.51E-06	-3.32E-07	-1.17E-06	5.30E-08	-1.12E-06	-4.52E-08	-6.58E-07	-7.03E-07	1.59E-06	2.27E-06	3.87E-06	2.04E-06	7.09E-07	2.74E-06	1.45E-06	-5.73E-06	-4.28E-06	6.38E-06	-1.77E-06	4.61E-06	5.51E-18	2.83E-18	8.34E-18	6.52E-06	-4.87E-06	1.65E-06	-1.41E-06	-7.14E-06	-8.56E-06	5.17E-06	-7.62E-06	-2.45E-06	2.79E-06	-2.90E-06	-1.08E-07	1.69E-06	-3.62E-06	-1.93E-06	-8.01E-07	-1.09E-06	-1.89E-06	4.34E-06	9.57E-06	1.39E-05	7.53E-07	6.43E-08	8.18E-07	-1.20E-06	-1.78E-06	-2.98E-06	-1.15E-06	2.27E-06	1.12E-06	-2.79E-18	1.09E-18	-1.70E-18	2.79E-06	6.87E-07	3.48E-06	1.50E-06	3.81E-06	5.31E-06	-3.62E-06	2.18E-07	-3.40E-06	-3.35E-06	-1.46E-06	-4.81E-06	7.44E-06	1.69E-06	9.13E-06	4.42E-06	1.56E-06	5.99E-06	7.28E-06	1.67E-06	8.95E-06	5.94E-06	2.93E-06	8.87E-06	-1.24E-05	3.00E-06	-9.43E-06	-1.20E-05	-2.61E-06	-1.46E-05	-3.30E-18	9.90E-19	-2.31E-18	-2.17E-05	-2.58E-06	-2.43E-05	9.59E-07	8.59E-06	9.55E-06	-9.91E-06	4.02E-06	-5.89E-06	-8.04E-06	-3.38E-07	-8.38E-06	2.48E-06	4.38E-06	6.86E-06	8.69E-06	3.27E-06	1.20E-05	-7.76E-06	-2.54E-05	-3.32E-05	2.35E-06	-4.71E-07	1.88E-06	0
-0.84	3.00E-06	-2.18E-06	8.26E-07	-1.56E-06	-5.75E-06	-7.32E-06	1.75E-18	7.20E-18	8.95E-18	1.82E-06	-2.39E-06	-5.74E-07	-2.13E-06	-4.94E-06	-7.08E-06	3.94E-06	-3.44E-06	4.95E-07	7.93E-07	-1.27E-06	-4.74E-07	-2.71E-06	-3.74E-07	-3.08E-06	-1.72E-06	-9.76E-07	-2.70E-06	1.78E-07	1.56E-06	1.74E-06	4.19E-07	-3.60E-07	5.95E-08	4.41E-07	-5.31E-06	-4.87E-06	7.52E-06	-1.55E-07	7.37E-06	6.56E-18	3.38E-18	9.95E-18	7.94E-06	-3.00E-06	4.93E-06	-2.28E-06	-7.20E-06	-9.48E-06	5.34E-06	-7.25E-06	-1.91E-06	3.77E-06	-2.40E-06	1.37E-06	-4.72E-07	-3.85E-06	-4.32E-06	-3.57E-06	-1.89E-06	-5.46E-06	6.32E-06	1.24E-05	1.87E-05	-1.28E-07	2.44E-07	1.16E-07	-1.62E-07	-2.07E-06	-2.23E-06	-7.78E-07	1.52E-06	7.46E-07	-3.35E-18	1.34E-18	-2.00E-18	3.52E-06	3.84E-07	3.90E-06	2.30E-06	3.52E-06	5.81E-06	-3.73E-06	-5.51E-07	-4.28E-06	-4.14E-06	-2.13E-06	-6.27E-06	8.17E-06	1.95E-06	1.01E-05	5.31E-06	1.91E-06	7.22E-06	7.54E-06	1.83E-06	9.37E-06	6.67E-06	3.45E-06	1.01E-05	-1.26E-05	1.86E-06	-1.08E-05	-1.23E-05	-4.11E-06	-1.64E-05	-3.89E-18	1.16E-18	-2.73E-18	-2.41E-05	-5.26E-06	-2.94E-05	1.50E-06	8.02E-06	9.51E-06	-1.08E-05	2.07E-06	-8.74E-06	-8.66E-06	-1.26E-06	-9.92E-06	2.97E-06	3.96E-06	6.93E-06	9.97E-06	3.75E-06	1.37E-05	-8.09E-06	-2.75E-05	-3.56E-05	3.01E-06	-3.58E-07	2.65E-06	0
-0.8	2.22E-06	-1.65E-06	5.69E-07	-2.57E-06	-5.55E-06	-8.12E-06	1.89E-18	7.87E-18	9.76E-18	-5.92E-07	-2.56E-06	-3.15E-06	-1.21E-06	-4.27E-06	-5.48E-06	4.65E-06	-2.70E-06	1.95E-06	3.87E-07	-1.00E-06	-6.15E-07	-4.26E-06	-8.08E-07	-5.07E-06	-3.43E-06	-1.30E-06	-4.73E-06	-1.29E-06	8.09E-07	-4.77E-07	-1.25E-06	-1.46E-06	-2.70E-06	-6.03E-07	-4.83E-06	-5.44E-06	8.63E-06	1.51E-06	1.01E-05	7.56E-18	3.92E-18	1.15E-17	9.32E-06	-1.06E-06	8.26E-06	-3.14E-06	-7.20E-06	-1.03E-05	5.48E-06	-6.81E-06	-1.34E-06	4.74E-06	-1.86E-06	2.88E-06	-2.69E-06	-4.05E-06	-6.74E-06	-6.39E-06	-2.70E-06	-9.09E-06	8.31E-06	1.52E-05	2.35E-05	-1.03E-06	4.28E-07	-6.06E-07	9.08E-07	-2.35E-06	-1.44E-06	-3.88E-07	7.46E-07	3.58E-07	-3.87E-18	1.59E-18	-2.28E-18	4.23E-06	6.28E-08	4.30E-06	3.09E-06	3.17E-06	6.26E-06	-3.78E-06	-1.33E-06	-5.12E-06	-4.91E-06	-2.78E-06	-7.69E-06	8.83E-06	2.21E-06	1.10E-05	6.15E-06	2.25E-06	8.40E-06	7.72E-06	1.97E-06	9.69E-06	7.35E-06	3.93E-06	1.13E-05	-1.27E-05	6.72E-07	-1.21E-05	-1.25E-05	-5.60E-06	-1.81E-05	-4.44E-18	1.31E-18	-3.13E-18	-2.63E-05	-7.96E-06	-3.43E-05	2.01E-06	7.34E-06	9.35E-06	-1.16E-05	4.37E-08	-1.16E-05	-9.20E-06	-2.19E-06	-1.14E-05	3.42E-06	3.49E-06	6.92E-06	1.12E-05	4.21E-06	1.54E-05	-8.33E-06	-2.94E-05	-3.77E-05	3.64E-06	-2.35E-07	3.41E-06	0
-0.76	1.38E-06	-1.09E-06	2.94E-07	-3.58E-06	-5.30E-06	-8.88E-06	2.01E-18	8.46E-18	1.05E-17	-3.08E-06	-2.72E-06	-5.80E-06	-2.31E-07	-3.54E-06	-3.77E-06	5.36E-06	-1.91E-06	3.44E-06	-2.94E-08	-7.25E-07	-7.55E-07	-5.82E-06	-1.25E-06	-7.07E-06	-5.16E-06	-1.62E-06	-6.78E-06	-2.79E-06	2.70E-08	-2.76E-06	-2.95E-06	-2.58E-06	-5.53E-06	-1.68E-06	-4.30E-06	-5.98E-06	9.69E-06	3.20E-06	1.29E-05	8.50E-18	4.42E-18	1.29E-17	1.07E-05	9.44E-07	1.16E-05	-4.00E-06	-7.14E-06	-1.11E-05	5.57E-06	-6.30E-06	-7.33E-07	5.70E-06	-1.30E-06	4.40E-06	-4.96E-06	-4.23E-06	-9.18E-06	-9.25E-06	-3.50E-06	-1.27E-05	1.03E-05	1.80E-05	2.83E-05	-1.96E-06	6.16E-07	-1.34E-06	2.00E-06	-2.60E-06	-6.03E-07	1.65E-08	-6.23E-08	-4.58E-08	-4.36E-18	1.82E-18	-2.53E-18	4.93E-06	-2.76E-07	4.65E-06	3.88E-06	2.78E-06	6.66E-06	-3.79E-06	-2.12E-06	-5.91E-06	-5.63E-06	-3.42E-06	-9.05E-06	9.40E-06	2.44E-06	1.18E-05	6.93E-06	2.56E-06	9.50E-06	7.81E-06	2.09E-06	9.90E-06	7.96E-06	4.38E-06	1.23E-05	-1.27E-05	-5.55E-07	-1.33E-05	-1.26E-05	-7.05E-06	-1.97E-05	-4.96E-18	1.46E-18	-3.50E-18	-2.84E-05	-1.06E-05	-3.90E-05	2.49E-06	6.57E-06	9.06E-06	-1.23E-05	-2.03E-06	-1.44E-05	-9.65E-06	-3.12E-06	-1.28E-05	3.85E-06	2.97E-06	6.82E-06	1.23E-05	4.63E-06	1.69E-05	-8.47E-06	-3.09E-05	-3.94E-05	4.25E-06	-1.02E-07	4.15E-06	0
-0.72	5.04E-07	-5.03E-07	1.46E-09	-4.59E-06	-5.00E-06	-9.59E-06	2.12E-18	8.96E-18	1.11E-17	-5.62E-06	-2.86E-06	-8.49E-06	7.89E-07	-2.77E-06	-1.98E-06	6.05E-06	-1.10E-06	4.95E-06	-4.54E-07	-4.38E-07	-8.91E-07	-7.39E-06	-1.69E-06	-9.08E-06	-6.90E-06	-1.95E-06	-8.85E-06	-4.32E-06	-7.83E-07	-5.11E-06	-4.68E-06	-3.72E-06	-8.40E-06	-2.78E-06	-3.73E-06	-6.50E-06	1.07E-05	4.92E-06	1.56E-05	9.37E-18	4.88E-18	1.42E-17	1.19E-05	2.99E-06	1.49E-05	-4.85E-06	-7.01E-06	-1.19E-05	5.63E-06	-5.74E-06	-1.04E-07	6.64E-06	-7.06E-07	5.94E-06	-7.25E-06	-4.38E-06	-1.16E-05	-1.21E-05	-4.30E-06	-1.64E-05	1.23E-05	2.07E-05	3.30E-05	-2.90E-06	8.08E-07	-2.09E-06	3.11E-06	-2.83E-06	2.80E-07	4.34E-07	-8.96E-07	-4.62E-07	-4.80E-18	2.04E-18	-2.76E-18	5.60E-06	-6.33E-07	4.96E-06	4.67E-06	2.34E-06	7.01E-06	-3.74E-06	-2.91E-06	-6.65E-06	-6.30E-06	-4.05E-06	-1.03E-05	9.89E-06	2.65E-06	1.25E-05	7.65E-06	2.86E-06	1.05E-05	7.81E-06	2.18E-06	9.98E-06	8.50E-06	4.79E-06	1.33E-05	-1.27E-05	-1.81E-06	-1.45E-05	-1.26E-05	-8.45E-06	-2.10E-05	-5.43E-18	1.59E-18	-3.83E-18	-3.02E-05	-1.33E-05	-4.35E-05	2.93E-06	5.69E-06	8.62E-06	-1.30E-05	-4.15E-06	-1.71E-05	-1.00E-05	-4.02E-06	-1.40E-05	4.23E-06	2.40E-06	6.63E-06	1.32E-05	5.01E-06	1.82E-05	-8.49E-06	-3.21E-05	-4.06E-05	4.84E-06	4.23E-08	4.88E-06	0
-0.68	-4.07E-07	9.82E-08	-3.09E-07	-5.59E-06	-4.66E-06	-1.02E-05	2.20E-18	9.37E-18	1.16E-17	-8.22E-06	-2.99E-06	-1.12E-05	1.85E-06	-1.95E-06	-9.89E-08	6.73E-06	-2.57E-07	6.47E-06	-8.81E-07	-1.43E-07	-1.02E-06	-8.95E-06	-2.13E-06	-1.11E-05	-8.65E-06	-2.28E-06	-1.09E-05	-5.89E-06	-1.62E-06	-7.50E-06	-6.43E-06	-4.87E-06	-1.13E-05	-3.89E-06	-3.11E-06	-7.01E-06	1.17E-05	6.65E-06	1.83E-05	1.02E-17	5.30E-18	1.55E-17	1.32E-05	5.08E-06	1.83E-05	-5.69E-06	-6.84E-06	-1.25E-05	5.66E-06	-5.12E-06	5.45E-07	7.57E-06	-9.78E-08	7.47E-06	-9.56E-06	-4.50E-06	-1.41E-05	-1.50E-05	-5.09E-06	-2.01E-05	1.43E-05	2.33E-05	3.76E-05	-3.85E-06	1.00E-06	-2.85E-06	4.24E-06	-3.04E-06	1.20E-06	8.61E-07	-1.75E-06	-8.87E-07	-5.20E-18	2.25E-18	-2.95E-18	6.24E-06	-1.01E-06	5.23E-06	5.44E-06	1.86E-06	7.30E-06	-3.63E-06	-3.70E-06	-7.33E-06	-6.91E-06	-4.64E-06	-1.16E-05	1.03E-05	2.84E-06	1.31E-05	8.28E-06	3.13E-06	1.14E-05	7.71E-06	2.24E-06	9.94E-06	8.96E-06	5.14E-06	1.41E-05	-1.26E-05	-3.08E-06	-1.56E-05	-1.24E-05	-9.80E-06	-2.22E-05	-5.85E-18	1.71E-18	-4.13E-18	-3.18E-05	-1.59E-05	-4.77E-05	3.31E-06	4.73E-06	8.04E-06	-1.35E-05	-6.29E-06	-1.98E-05	-1.03E-05	-4.91E-06	-1.52E-05	4.57E-06	1.78E-06	6.35E-06	1.41E-05	5.35E-06	1.94E-05	-8.39E-06	-3.29E-05	-4.13E-05	5.38E-06	1.97E-07	5.58E-06	0
-0.64	-1.35E-06	7.12E-07	-6.36E-07	-6.56E-06	-4.28E-06	-1.08E-05	2.27E-18	9.67E-18	1.19E-17	-1.09E-05	-3.12E-06	-1.40E-05	2.95E-06	-1.10E-06	1.85E-06	7.40E-06	6.00E-07	8.00E-06	-1.31E-06	1.56E-07	-1.15E-06	-1.05E-05	-2.57E-06	-1.31E-05	-1.04E-05	-2.62E-06	-1.30E-05	-7.47E-06	-2.47E-06	-9.94E-06	-8.19E-06	-6.03E-06	-1.42E-05	-5.03E-06	-2.47E-06	-7.49E-06	1.26E-05	8.38E-06	2.10E-05	1.08E-17	5.68E-18	1.65E-17	1.43E-05	7.18E-06	2.15E-05	-6.50E-06	-6.61E-06	-1.31E-05	5.66E-06	-4.45E-06	1.21E-06	8.47E-06	5.24E-07	9.00E-06	-1.19E-05	-4.61E-06	-1.65E-05	-1.79E-05	-5.86E-06	-2.37E-05	1.62E-05	2.59E-05	4.22E-05	-4.80E-06	1.20E-06	-3.60E-06	5.37E-06	-3.20E-06	2.16E-06	1.30E-06	-2.62E-06	-1.32E-06	-5.54E-18	2.44E-18	-3.11E-18	6.84E-06	-1.40E-06	5.44E-06	6.19E-06	1.34E-06	7.53E-06	-3.45E-06	-4.48E-06	-7.93E-06	-7.46E-06	-5.21E-06	-1.27E-05	1.06E-05	2.99E-06	1.36E-05	8.84E-06	3.36E-06	1.22E-05	7.51E-06	2.26E-06	9.77E-06	9.34E-06	5.45E-06	1.48E-05	-1.24E-05	-4.36E-06	-1.67E-05	-1.21E-05	-1.11E-05	-2.31E-05	-6.22E-18	1.82E-18	-4.40E-18	-3.31E-05	-1.84E-05	-5.16E-05	3.64E-06	3.67E-06	7.31E-06	-1.40E-05	-8.44E-06	-2.24E-05	-1.04E-05	-5.75E-06	-1.62E-05	4.85E-06	1.12E-06	5.97E-06	1.48E-05	5.64E-06	2.04E-05	-8.17E-06	-3.33E-05	-4.14E-05	5.89E-06	3.62E-07	6.25E-06	0
-0.6	-2.31E-06	1.33E-06	-9.80E-07	-7.51E-06	-3.88E-06	-1.14E-05	2.32E-18	9.86E-18	1.22E-17	-1.35E-05	-3.23E-06	-1.67E-05	4.09E-06	-2.20E-07	3.87E-06	8.06E-06	1.47E-06	9.53E-06	-1.73E-06	4.55E-07	-1.28E-06	-1.20E-05	-3.01E-06	-1.50E-05	-1.21E-05	-2.95E-06	-1.51E-05	-9.06E-06	-3.34E-06	-1.24E-05	-9.95E-06	-7.20E-06	-1.71E-05	-6.17E-06	-1.80E-06	-7.96E-06	1.34E-05	1.01E-05	2.35E-05	1.14E-17	6.01E-18	1.75E-17	1.55E-05	9.28E-06	2.47E-05	-7.29E-06	-6.34E-06	-1.36E-05	5.64E-06	-3.75E-06	1.89E-06	9.35E-06	1.15E-06	1.05E-05	-1.42E-05	-4.70E-06	-1.89E-05	-2.08E-05	-6.61E-06	-2.74E-05	1.82E-05	2.85E-05	4.66E-05	-5.76E-06	1.40E-06	-4.35E-06	6.50E-06	-3.34E-06	3.16E-06	1.74E-06	-3.49E-06	-1.75E-06	-5.83E-18	2.61E-18	-3.22E-18	7.40E-06	-1.81E-06	5.59E-06	6.93E-06	7.80E-07	7.71E-06	-3.20E-06	-5.24E-06	-8.45E-06	-7.92E-06	-5.74E-06	-1.37E-05	1.07E-05	3.12E-06	1.39E-05	9.29E-06	3.56E-06	1.29E-05	7.20E-06	2.25E-06	9.45E-06	9.63E-06	5.69E-06	1.53E-05	-1.21E-05	-5.64E-06	-1.78E-05	-1.16E-05	-1.23E-05	-2.39E-05	-6.53E-18	1.90E-18	-4.62E-18	-3.42E-05	-2.09E-05	-5.51E-05	3.89E-06	2.53E-06	6.42E-06	-1.44E-05	-1.06E-05	-2.50E-05	-1.04E-05	-6.56E-06	-1.70E-05	5.07E-06	4.18E-07	5.49E-06	1.53E-05	5.89E-06	2.12E-05	-7.81E-06	-3.32E-05	-4.10E-05	6.35E-06	5.39E-07	6.89E-06	0
-0.56	-3.30E-06	1.96E-06	-1.34E-06	-8.42E-06	-3.45E-06	-1.19E-05	2.34E-18	9.94E-18	1.23E-17	-1.62E-05	-3.34E-06	-1.95E-05	5.25E-06	6.79E-07	5.93E-06	8.71E-06	2.33E-06	1.10E-05	-2.14E-06	7.51E-07	-1.39E-06	-1.35E-05	-3.43E-06	-1.70E-05	-1.38E-05	-3.29E-06	-1.71E-05	-1.07E-05	-4.22E-06	-1.49E-05	-1.17E-05	-8.36E-06	-2.00E-05	-7.31E-06	-1.11E-06	-8.42E-06	1.42E-05	1.18E-05	2.60E-05	1.19E-17	6.28E-18	1.82E-17	1.65E-05	1.14E-05	2.79E-05	-8.05E-06	-6.02E-06	-1.41E-05	5.59E-06	-3.02E-06	2.57E-06	1.02E-05	1.79E-06	1.20E-05	-1.65E-05	-4.76E-06	-2.12E-05	-2.36E-05	-7.34E-06	-3.09E-05	2.01E-05	3.09E-05	5.10E-05	-6.70E-06	1.61E-06	-5.10E-06	7.61E-06	-3.43E-06	4.18E-06	2.18E-06	-4.37E-06	-2.19E-06	-6.05E-18	2.76E-18	-3.30E-18	7.93E-06	-2.24E-06	5.68E-06	7.64E-06	1.82E-07	7.83E-06	-2.88E-06	-5.99E-06	-8.87E-06	-8.31E-06	-6.24E-06	-1.45E-05	1.08E-05	3.22E-06	1.40E-05	9.64E-06	3.73E-06	1.34E-05	6.79E-06	2.20E-06	8.99E-06	9.82E-06	5.86E-06	1.57E-05	-1.19E-05	-6.90E-06	-1.88E-05	-1.11E-05	-1.33E-05	-2.44E-05	-6.77E-18	1.97E-18	-4.80E-18	-3.51E-05	-2.32E-05	-5.83E-05	4.06E-06	1.31E-06	5.38E-06	-1.46E-05	-1.27E-05	-2.73E-05	-1.04E-05	-7.32E-06	-1.77E-05	5.23E-06	-3.24E-07	4.90E-06	1.57E-05	6.08E-06	2.18E-05	-7.31E-06	-3.27E-05	-4.00E-05	6.76E-06	7.26E-07	7.49E-06	0
-0.52	-4.30E-06	2.58E-06	-1.72E-06	-9.29E-06	-3.00E-06	-1.23E-05	2.34E-18	9.91E-18	1.23E-17	-1.88E-05	-3.43E-06	-2.23E-05	6.44E-06	1.59E-06	8.03E-06	9.35E-06	3.19E-06	1.25E-05	-2.55E-06	1.04E-06	-1.50E-06	-1.50E-05	-3.85E-06	-1.89E-05	-1.55E-05	-3.63E-06	-1.91E-05	-1.22E-05	-5.11E-06	-1.74E-05	-1.34E-05	-9.50E-06	-2.29E-05	-8.45E-06	-4.08E-07	-8.86E-06	1.50E-05	1.35E-05	2.84E-05	1.23E-17	6.50E-18	1.88E-17	1.75E-05	1.34E-05	3.09E-05	-8.78E-06	-5.67E-06	-1.44E-05	5.53E-06	-2.26E-06	3.26E-06	1.10E-05	2.42E-06	1.34E-05	-1.87E-05	-4.82E-06	-2.36E-05	-2.64E-05	-8.04E-06	-3.44E-05	2.20E-05	3.33E-05	5.53E-05	-7.64E-06	1.81E-06	-5.83E-06	8.72E-06	-3.49E-06	5.23E-06	2.63E-06	-5.24E-06	-2.62E-06	-6.21E-18	2.89E-18	-3.33E-18	8.40E-06	-2.69E-06	5.71E-06	8.33E-06	-4.49E-07	7.89E-06	-2.48E-06	-6.70E-06	-9.18E-06	-8.60E-06	-6.69E-06	-1.53E-05	1.07E-05	3.28E-06	1.40E-05	9.87E-06	3.86E-06	1.37E-05	6.26E-06	2.11E-06	8.37E-06	9.92E-06	5.97E-06	1.59E-05	-1.16E-05	-8.14E-06	-1.97E-05	-1.04E-05	-1.43E-05	-2.47E-05	-6.95E-18	2.03E-18	-4.93E-18	-3.57E-05	-2.54E-05	-6.10E-05	4.15E-06	2.51E-08	4.17E-06	-1.48E-05	-1.48E-05	-2.96E-05	-1.02E-05	-8.01E-06	-1.82E-05	5.31E-06	-1.10E-06	4.21E-06	1.60E-05	6.22E-06	2.22E-05	-6.66E-06	-3.17E-05	-3.84E-05	7.11E-06	9.24E-07	8.04E-06	0
-0.48	-5.30E-06	3.20E-06	-2.11E-06	-1.01E-05	-2.53E-06	-1.26E-05	2.32E-18	9.75E-18	1.21E-17	-2.15E-05	-3.53E-06	-2.50E-05	7.65E-06	2.51E-06	1.02E-05	9.97E-06	4.04E-06	1.40E-05	-2.93E-06	1.32E-06	-1.61E-06	-1.64E-05	-4.25E-06	-2.07E-05	-1.71E-05	-3.98E-06	-2.11E-05	-1.38E-05	-5.99E-06	-1.98E-05	-1.51E-05	-1.06E-05	-2.57E-05	-9.59E-06	2.96E-07	-9.30E-06	1.56E-05	1.51E-05	3.07E-05	1.26E-17	6.66E-18	1.92E-17	1.83E-05	1.55E-05	3.38E-05	-9.47E-06	-5.28E-06	-1.47E-05	5.44E-06	-1.50E-06	3.95E-06	1.18E-05	3.04E-06	1.48E-05	-2.09E-05	-4.86E-06	-2.58E-05	-2.91E-05	-8.71E-06	-3.78E-05	2.39E-05	3.55E-05	5.94E-05	-8.56E-06	2.02E-06	-6.54E-06	9.80E-06	-3.49E-06	6.31E-06	3.07E-06	-6.11E-06	-3.04E-06	-6.30E-18	2.99E-18	-3.31E-18	8.82E-06	-3.15E-06	5.67E-06	9.00E-06	-1.11E-06	7.89E-06	-2.00E-06	-7.39E-06	-9.39E-06	-8.80E-06	-7.09E-06	-1.59E-05	1.05E-05	3.31E-06	1.39E-05	9.98E-06	3.94E-06	1.39E-05	5.62E-06	1.98E-06	7.60E-06	9.91E-06	6.00E-06	1.59E-05	-1.13E-05	-9.35E-06	-2.07E-05	-9.52E-06	-1.52E-05	-2.47E-05	-7.07E-18	2.06E-18	-5.01E-18	-3.60E-05	-2.74E-05	-6.34E-05	4.14E-06	-1.33E-06	2.81E-06	-1.49E-05	-1.68E-05	-3.17E-05	-9.86E-06	-8.64E-06	-1.85E-05	5.32E-06	-1.91E-06	3.41E-06	1.60E-05	6.30E-06	2.23E-05	-5.85E-06	-3.02E-05	-3.61E-05	7.40E-06	1.13E-06	8.54E-06	0
-0.44	-6.31E-06	3.80E-06	-2.51E-06	-1.09E-05	-2.06E-06	-1.29E-05	2.28E-18	9.48E-18	1.18E-17	-2.41E-05	-3.62E-06	-2.77E-05	8.88E-06	3.43E-06	1.23E-05	1.06E-05	4.86E-06	1.54E-05	-3.30E-06	1.59E-06	-1.70E-06	-1.78E-05	-4.64E-06	-2.25E-05	-1.87E-05	-4.32E-06	-2.30E-05	-1.54E-05	-6.88E-06	-2.23E-05	-1.67E-05	-1.18E-05	-2.85E-05	-1.07E-05	9.96E-07	-9.72E-06	1.62E-05	1.67E-05	3.29E-05	1.27E-17	6.75E-18	1.95E-17	1.92E-05	1.74E-05	3.66E-05	-1.01E-05	-4.86E-06	-1.50E-05	5.35E-06	-7.23E-07	4.63E-06	1.25E-05	3.65E-06	1.62E-05	-2.31E-05	-4.88E-06	-2.80E-05	-3.17E-05	-9.35E-06	-4.11E-05	2.57E-05	3.77E-05	6.34E-05	-9.46E-06	2.23E-06	-7.23E-06	1.09E-05	-3.46E-06	7.40E-06	3.51E-06	-6.96E-06	-3.45E-06	-6.32E-18	3.07E-18	-3.25E-18	9.19E-06	-3.64E-06	5.55E-06	9.64E-06	-1.80E-06	7.84E-06	-1.44E-06	-8.04E-06	-9.48E-06	-8.89E-06	-7.43E-06	-1.63E-05	1.02E-05	3.30E-06	1.35E-05	9.97E-06	3.97E-06	1.39E-05	4.86E-06	1.79E-06	6.66E-06	9.79E-06	5.95E-06	1.57E-05	-1.10E-05	-1.05E-05	-2.15E-05	-8.55E-06	-1.59E-05	-2.44E-05	-7.11E-18	2.07E-18	-5.04E-18	-3.60E-05	-2.93E-05	-6.53E-05	4.04E-06	-2.75E-06	1.29E-06	-1.49E-05	-1.88E-05	-3.37E-05	-9.43E-06	-9.20E-06	-1.86E-05	5.25E-06	-2.74E-06	2.50E-06	1.58E-05	6.32E-06	2.22E-05	-4.89E-06	-2.82E-05	-3.31E-05	7.63E-06	1.35E-06	8.98E-06	0
-0.4	-7.32E-06	4.39E-06	-2.93E-06	-1.16E-05	-1.58E-06	-1.32E-05	2.21E-18	9.08E-18	1.13E-17	-2.67E-05	-3.71E-06	-3.04E-05	1.01E-05	4.34E-06	1.45E-05	1.12E-05	5.65E-06	1.68E-05	-3.64E-06	1.85E-06	-1.79E-06	-1.92E-05	-5.01E-06	-2.42E-05	-2.02E-05	-4.67E-06	-2.49E-05	-1.69E-05	-7.76E-06	-2.47E-05	-1.83E-05	-1.28E-05	-3.12E-05	-1.18E-05	1.69E-06	-1.01E-05	1.68E-05	1.82E-05	3.50E-05	1.28E-17	6.78E-18	1.95E-17	1.99E-05	1.93E-05	3.92E-05	-1.07E-05	-4.42E-06	-1.51E-05	5.24E-06	5.03E-08	5.30E-06	1.32E-05	4.25E-06	1.75E-05	-2.52E-05	-4.90E-06	-3.01E-05	-3.43E-05	-9.95E-06	-4.43E-05	2.75E-05	3.98E-05	6.73E-05	-1.03E-05	2.44E-06	-7.90E-06	1.19E-05	-3.37E-06	8.51E-06	3.95E-06	-7.79E-06	-3.84E-06	-6.26E-18	3.13E-18	-3.13E-18	9.50E-06	-4.14E-06	5.36E-06	1.03E-05	-2.52E-06	7.74E-06	-7.93E-07	-8.65E-06	-9.44E-06	-8.87E-06	-7.72E-06	-1.66E-05	9.80E-06	3.24E-06	1.30E-05	9.81E-06	3.96E-06	1.38E-05	3.99E-06	1.56E-06	5.55E-06	9.56E-06	5.81E-06	1.54E-05	-1.07E-05	-1.16E-05	-2.23E-05	-7.47E-06	-1.64E-05	-2.39E-05	-7.08E-18	2.06E-18	-5.02E-18	-3.57E-05	-3.10E-05	-6.67E-05	3.82E-06	-4.21E-06	-3.89E-07	-1.48E-05	-2.07E-05	-3.55E-05	-8.87E-06	-9.67E-06	-1.85E-05	5.09E-06	-3.61E-06	1.48E-06	1.55E-05	6.27E-06	2.18E-05	-3.77E-06	-2.57E-05	-2.95E-05	7.78E-06	1.58E-06	9.36E-06	0
-0.36	-8.31E-06	4.96E-06	-3.36E-06	-1.22E-05	-1.10E-06	-1.33E-05	2.13E-18	8.56E-18	1.07E-17	-2.92E-05	-3.79E-06	-3.30E-05	1.14E-05	5.23E-06	1.66E-05	1.18E-05	6.41E-06	1.82E-05	-3.96E-06	2.09E-06	-1.87E-06	-2.04E-05	-5.37E-06	-2.58E-05	-2.17E-05	-5.02E-06	-2.67E-05	-1.84E-05	-8.63E-06	-2.71E-05	-1.99E-05	-1.39E-05	-3.38E-05	-1.29E-05	2.36E-06	-1.06E-05	1.72E-05	1.97E-05	3.69E-05	1.27E-17	6.74E-18	1.94E-17	2.05E-05	2.11E-05	4.16E-05	-1.13E-05	-3.96E-06	-1.52E-05	5.13E-06	8.16E-07	5.95E-06	1.39E-05	4.82E-06	1.87E-05	-2.72E-05	-4.90E-06	-3.21E-05	-3.68E-05	-1.05E-05	-4.73E-05	2.92E-05	4.18E-05	7.10E-05	-1.12E-05	2.65E-06	-8.54E-06	1.29E-05	-3.24E-06	9.63E-06	4.37E-06	-8.60E-06	-4.22E-06	-6.13E-18	3.16E-18	-2.97E-18	9.74E-06	-4.65E-06	5.09E-06	1.08E-05	-3.25E-06	7.58E-06	-6.01E-08	-9.22E-06	-9.28E-06	-8.74E-06	-7.96E-06	-1.67E-05	9.22E-06	3.15E-06	1.24E-05	9.52E-06	3.90E-06	1.34E-05	2.99E-06	1.28E-06	4.27E-06	9.21E-06	5.59E-06	1.48E-05	-1.04E-05	-1.27E-05	-2.31E-05	-6.25E-06	-1.68E-05	-2.31E-05	-6.97E-18	2.03E-18	-4.94E-18	-3.51E-05	-3.25E-05	-6.77E-05	3.51E-06	-5.73E-06	-2.22E-06	-1.45E-05	-2.25E-05	-3.71E-05	-8.19E-06	-1.01E-05	-1.82E-05	4.84E-06	-4.49E-06	3.53E-07	1.49E-05	6.16E-06	2.11E-05	-2.49E-06	-2.27E-05	-2.52E-05	7.86E-06	1.82E-06	9.68E-06	0
-0.32	-9.30E-06	5.50E-06	-3.80E-06	-1.28E-05	-6.24E-07	-1.34E-05	2.02E-18	7.93E-18	9.94E-18	-3.16E-05	-3.88E-06	-3.55E-05	1.26E-05	6.11E-06	1.87E-05	1.24E-05	7.13E-06	1.95E-05	-4.25E-06	2.31E-06	-1.94E-06	-2.16E-05	-5.70E-06	-2.73E-05	-2.31E-05	-5.37E-06	-2.84E-05	-1.99E-05	-9.48E-06	-2.94E-05	-2.13E-05	-1.49E-05	-3.63E-05	-1.40E-05	3.02E-06	-1.10E-05	1.76E-05	2.10E-05	3.86E-05	1.24E-17	6.64E-18	1.91E-17	2.10E-05	2.29E-05	4.39E-05	-1.18E-05	-3.47E-06	-1.52E-05	5.02E-06	1.57E-06	6.59E-06	1.45E-05	5.37E-06	1.98E-05	-2.91E-05	-4.90E-06	-3.40E-05	-3.92E-05	-1.10E-05	-5.02E-05	3.09E-05	4.37E-05	7.46E-05	-1.20E-05	2.86E-06	-9.14E-06	1.38E-05	-3.05E-06	1.08E-05	4.80E-06	-9.37E-06	-4.58E-06	-5.92E-18	3.17E-18	-2.75E-18	9.92E-06	-5.19E-06	4.73E-06	1.14E-05	-4.00E-06	7.39E-06	7.60E-07	-9.73E-06	-8.97E-06	-8.50E-06	-8.13E-06	-1.66E-05	8.51E-06	3.01E-06	1.15E-05	9.08E-06	3.79E-06	1.29E-05	1.88E-06	9.51E-07	2.83E-06	8.74E-06	5.28E-06	1.40E-05	-1.01E-05	-1.37E-05	-2.38E-05	-4.92E-06	-1.71E-05	-2.20E-05	-6.79E-18	1.98E-18	-4.81E-18	-3.43E-05	-3.38E-05	-6.81E-05	3.08E-06	-7.28E-06	-4.20E-06	-1.42E-05	-2.42E-05	-3.85E-05	-7.39E-06	-1.04E-05	-1.77E-05	4.50E-06	-5.39E-06	-8.88E-07	1.41E-05	5.98E-06	2.01E-05	-1.04E-06	-1.91E-05	-2.01E-05	7.87E-06	2.07E-06	9.94E-06	0
-0.28	-1.03E-05	6.02E-06	-4.25E-06	-1.33E-05	-1.57E-07	-1.34E-05	1.88E-18	7.18E-18	9.06E-18	-3.40E-05	-3.97E-06	-3.80E-05	1.39E-05	6.96E-06	2.09E-05	1.29E-05	7.80E-06	2.07E-05	-4.51E-06	2.50E-06	-2.00E-06	-2.28E-05	-6.01E-06	-2.88E-05	-2.44E-05	-5.73E-06	-3.01E-05	-2.14E-05	-1.03E-05	-3.17E-05	-2.27E-05	-1.59E-05	-3.86E-05	-1.50E-05	3.64E-06	-1.14E-05	1.79E-05	2.23E-05	4.02E-05	1.21E-17	6.47E-18	1.86E-17	2.15E-05	2.45E-05	4.60E-05	-1.22E-05	-2.98E-06	-1.52E-05	4.90E-06	2.30E-06	7.20E-06	1.50E-05	5.89E-06	2.09E-05	-3.10E-05	-4.90E-06	-3.59E-05	-4.15E-05	-1.15E-05	-5.29E-05	3.26E-05	4.54E-05	7.80E-05	-1.28E-05	3.07E-06	-9.71E-06	1.47E-05	-2.81E-06	1.19E-05	5.21E-06	-1.01E-05	-4.91E-06	-5.64E-18	3.15E-18	-2.49E-18	1.00E-05	-5.74E-06	4.30E-06	1.19E-05	-4.77E-06	7.15E-06	1.67E-06	-1.02E-05	-8.53E-06	-8.14E-06	-8.23E-06	-1.64E-05	7.67E-06	2.84E-06	1.05E-05	8.50E-06	3.62E-06	1.21E-05	6.47E-07	5.67E-07	1.21E-06	8.15E-06	4.88E-06	1.30E-05	-9.86E-06	-1.46E-05	-2.45E-05	-3.48E-06	-1.72E-05	-2.06E-05	-6.54E-18	1.91E-18	-4.63E-18	-3.31E-05	-3.49E-05	-6.80E-05	2.53E-06	-8.86E-06	-6.33E-06	-1.38E-05	-2.58E-05	-3.96E-05	-6.47E-06	-1.06E-05	-1.70E-05	4.06E-06	-6.30E-06	-2.24E-06	1.31E-05	5.74E-06	1.89E-05	5.67E-07	-1.50E-05	-1.44E-05	7.79E-06	2.33E-06	1.01E-05	0
-0.24	-1.12E-05	6.51E-06	-4.71E-06	-1.37E-05	2.98E-07	-1.34E-05	1.73E-18	6.32E-18	8.05E-18	-3.63E-05	-4.06E-06	-4.04E-05	1.51E-05	7.79E-06	2.29E-05	1.35E-05	8.41E-06	2.19E-05	-4.73E-06	2.68E-06	-2.06E-06	-2.38E-05	-6.30E-06	-3.01E-05	-2.56E-05	-6.08E-06	-3.17E-05	-2.27E-05	-1.11E-05	-3.39E-05	-2.40E-05	-1.69E-05	-4.09E-05	-1.60E-05	4.24E-06	-1.18E-05	1.82E-05	2.35E-05	4.17E-05	1.16E-17	6.23E-18	1.78E-17	2.19E-05	2.60E-05	4.79E-05	-1.26E-05	-2.47E-06	-1.51E-05	4.79E-06	3.00E-06	7.79E-06	1.55E-05	6.38E-06	2.19E-05	-3.27E-05	-4.89E-06	-3.76E-05	-4.36E-05	-1.19E-05	-5.55E-05	3.42E-05	4.71E-05	8.12E-05	-1.35E-05	3.27E-06	-1.02E-05	1.55E-05	-2.51E-06	1.30E-05	5.61E-06	-1.08E-05	-5.21E-06	-5.28E-18	3.10E-18	-2.18E-18	1.01E-05	-6.30E-06	3.78E-06	1.24E-05	-5.54E-06	6.88E-06	2.66E-06	-1.06E-05	-7.95E-06	-7.66E-06	-8.28E-06	-1.59E-05	6.69E-06	2.62E-06	9.31E-06	7.77E-06	3.40E-06	1.12E-05	-7.00E-07	1.31E-07	-5.69E-07	7.44E-06	4.38E-06	1.18E-05	-9.63E-06	-1.54E-05	-2.51E-05	-1.92E-06	-1.71E-05	-1.90E-05	-6.21E-18	1.82E-18	-4.39E-18	-3.17E-05	-3.57E-05	-6.74E-05	1.88E-06	-1.05E-05	-8.59E-06	-1.34E-05	-2.73E-05	-4.06E-05	-5.43E-06	-1.07E-05	-1.61E-05	3.53E-06	-7.23E-06	-3.70E-06	1.19E-05	5.43E-06	1.74E-05	2.34E-06	-1.04E-05	-8.02E-06	7.64E-06	2.59E-06	1.02E-05	0
-0.2	-1.21E-05	6.96E-06	-5.18E-06	-1.40E-05	7.38E-07	-1.33E-05	1.56E-18	5.36E-18	6.92E-18	-3.85E-05	-4.16E-06	-4.27E-05	1.64E-05	8.57E-06	2.50E-05	1.40E-05	8.97E-06	2.30E-05	-4.92E-06	2.82E-06	-2.10E-06	-2.48E-05	-6.56E-06	-3.14E-05	-2.67E-05	-6.44E-06	-3.32E-05	-2.41E-05	-1.19E-05	-3.60E-05	-2.52E-05	-1.78E-05	-4.30E-05	-1.70E-05	4.80E-06	-1.22E-05	1.83E-05	2.47E-05	4.30E-05	1.10E-17	5.93E-18	1.70E-17	2.21E-05	2.74E-05	4.96E-05	-1.29E-05	-1.96E-06	-1.49E-05	4.67E-06	3.68E-06	8.35E-06	1.60E-05	6.83E-06	2.28E-05	-3.43E-05	-4.89E-06	-3.92E-05	-4.57E-05	-1.23E-05	-5.79E-05	3.57E-05	4.86E-05	8.43E-05	-1.42E-05	3.48E-06	-1.07E-05	1.63E-05	-2.17E-06	1.42E-05	6.00E-06	-1.15E-05	-5.48E-06	-4.85E-18	3.03E-18	-1.82E-18	1.00E-05	-6.88E-06	3.17E-06	1.29E-05	-6.32E-06	6.57E-06	3.74E-06	-1.10E-05	-7.22E-06	-7.06E-06	-8.25E-06	-1.53E-05	5.58E-06	2.35E-06	7.94E-06	6.89E-06	3.12E-06	1.00E-05	-2.16E-06	-3.59E-07	-2.52E-06	6.61E-06	3.79E-06	1.04E-05	-9.44E-06	-1.62E-05	-2.56E-05	-2.64E-07	-1.68E-05	-1.71E-05	-5.81E-18	1.71E-18	-4.10E-18	-2.99E-05	-3.64E-05	-6.63E-05	1.11E-06	-1.21E-05	-1.10E-05	-1.28E-05	-2.86E-05	-4.14E-05	-4.27E-06	-1.07E-05	-1.49E-05	2.90E-06	-8.16E-06	-5.26E-06	1.05E-05	5.05E-06	1.55E-05	4.28E-06	-5.23E-06	-9.48E-07	7.40E-06	2.86E-06	1.03E-05	0
-0.16	-1.30E-05	7.38E-06	-5.66E-06	-1.43E-05	1.16E-06	-1.31E-05	1.37E-18	4.31E-18	5.67E-18	-4.06E-05	-4.26E-06	-4.49E-05	1.76E-05	9.32E-06	2.70E-05	1.46E-05	9.47E-06	2.40E-05	-5.08E-06	2.94E-06	-2.13E-06	-2.57E-05	-6.81E-06	-3.25E-05	-2.78E-05	-6.79E-06	-3.46E-05	-2.54E-05	-1.27E-05	-3.81E-05	-2.64E-05	-1.86E-05	-4.50E-05	-1.80E-05	5.31E-06	-1.27E-05	1.84E-05	2.57E-05	4.41E-05	1.03E-17	5.57E-18	1.59E-17	2.23E-05	2.87E-05	5.10E-05	-1.32E-05	-1.45E-06	-1.46E-05	4.56E-06	4.32E-06	8.88E-06	1.63E-05	7.24E-06	2.36E-05	-3.58E-05	-4.88E-06	-4.07E-05	-4.76E-05	-1.26E-05	-6.01E-05	3.72E-05	5.00E-05	8.72E-05	-1.49E-05	3.69E-06	-1.12E-05	1.71E-05	-1.77E-06	1.53E-05	6.39E-06	-1.21E-05	-5.72E-06	-4.35E-18	2.94E-18	-1.41E-18	9.95E-06	-7.47E-06	2.48E-06	1.33E-05	-7.10E-06	6.25E-06	4.91E-06	-1.13E-05	-6.36E-06	-6.34E-06	-8.16E-06	-1.45E-05	4.35E-06	2.04E-06	6.39E-06	5.86E-06	2.79E-06	8.65E-06	-3.73E-06	-9.01E-07	-4.64E-06	5.66E-06	3.11E-06	8.77E-06	-9.28E-06	-1.68E-05	-2.61E-05	1.49E-06	-1.64E-05	-1.49E-05	-5.35E-18	1.58E-18	-3.76E-18	-2.79E-05	-3.67E-05	-6.47E-05	2.42E-07	-1.37E-05	-1.35E-05	-1.21E-05	-2.98E-05	-4.19E-05	-3.01E-06	-1.06E-05	-1.36E-05	2.17E-06	-9.09E-06	-6.93E-06	8.84E-06	4.60E-06	1.34E-05	6.37E-06	4.06E-07	6.78E-06	7.08E-06	3.14E-06	1.02E-05	0
-0.12	-1.39E-05	7.76E-06	-6.15E-06	-1.44E-05	1.56E-06	-1.29E-05	1.16E-18	3.17E-18	4.33E-18	-4.26E-05	-4.36E-06	-4.70E-05	1.89E-05	1.00E-05	2.89E-05	1.51E-05	9.91E-06	2.50E-05	-5.19E-06	3.03E-06	-2.16E-06	-2.65E-05	-7.02E-06	-3.35E-05	-2.88E-05	-7.15E-06	-3.59E-05	-2.66E-05	-1.34E-05	-4.00E-05	-2.74E-05	-1.95E-05	-4.69E-05	-1.89E-05	5.79E-06	-1.31E-05	1.85E-05	2.66E-05	4.51E-05	9.50E-18	5.14E-18	1.46E-17	2.24E-05	2.99E-05	5.23E-05	-1.34E-05	-9.34E-07	-1.43E-05	4.46E-06	4.92E-06	9.38E-06	1.67E-05	7.62E-06	2.43E-05	-3.72E-05	-4.88E-06	-4.21E-05	-4.93E-05	-1.28E-05	-6.22E-05	3.86E-05	5.14E-05	9.00E-05	-1.55E-05	3.89E-06	-1.16E-05	1.77E-05	-1.31E-06	1.64E-05	6.76E-06	-1.27E-05	-5.91E-06	-3.79E-18	2.82E-18	-9.69E-19	9.78E-06	-8.08E-06	1.70E-06	1.38E-05	-7.88E-06	5.90E-06	6.16E-06	-1.15E-05	-5.35E-06	-5.50E-06	-8.01E-06	-1.35E-05	2.99E-06	1.70E-06	4.69E-06	4.68E-06	2.41E-06	7.09E-06	-5.42E-06	-1.50E-06	-6.91E-06	4.59E-06	2.34E-06	6.93E-06	-9.17E-06	-1.74E-05	-2.66E-05	3.34E-06	-1.57E-05	-1.24E-05	-4.82E-18	1.43E-18	-3.38E-18	-2.56E-05	-3.69E-05	-6.25E-05	-7.36E-07	-1.54E-05	-1.61E-05	-1.14E-05	-3.09E-05	-4.23E-05	-1.64E-06	-1.04E-05	-1.20E-05	1.34E-06	-1.00E-05	-8.69E-06	6.97E-06	4.08E-06	1.10E-05	8.62E-06	6.51E-06	1.51E-05	6.67E-06	3.43E-06	1.01E-05	0
-0.08	-1.47E-05	8.10E-06	-6.64E-06	-1.45E-05	1.94E-06	-1.26E-05	9.32E-19	1.96E-18	2.89E-18	-4.45E-05	-4.47E-06	-4.90E-05	2.01E-05	1.07E-05	3.08E-05	1.56E-05	1.03E-05	2.59E-05	-5.27E-06	3.09E-06	-2.18E-06	-2.73E-05	-7.21E-06	-3.45E-05	-2.97E-05	-7.51E-06	-3.72E-05	-2.77E-05	-1.41E-05	-4.19E-05	-2.83E-05	-2.02E-05	-4.86E-05	-1.98E-05	6.21E-06	-1.36E-05	1.84E-05	2.74E-05	4.59E-05	8.58E-18	4.66E-18	1.32E-17	2.24E-05	3.09E-05	5.33E-05	-1.36E-05	-4.22E-07	-1.40E-05	4.37E-06	5.48E-06	9.84E-06	1.69E-05	7.96E-06	2.49E-05	-3.85E-05	-4.88E-06	-4.34E-05	-5.10E-05	-1.30E-05	-6.40E-05	4.00E-05	5.26E-05	9.26E-05	-1.60E-05	4.09E-06	-1.19E-05	1.83E-05	-8.07E-07	1.75E-05	7.12E-06	-1.32E-05	-6.07E-06	-3.16E-18	2.67E-18	-4.87E-19	9.53E-06	-8.70E-06	8.30E-07	1.42E-05	-8.65E-06	5.55E-06	7.49E-06	-1.17E-05	-4.20E-06	-4.56E-06	-7.79E-06	-1.24E-05	1.51E-06	1.31E-06	2.82E-06	3.36E-06	1.97E-06	5.33E-06	-7.20E-06	-2.14E-06	-9.34E-06	3.40E-06	1.48E-06	4.88E-06	-9.09E-06	-1.79E-05	-2.69E-05	5.28E-06	-1.50E-05	-9.67E-06	-4.23E-18	1.27E-18	-2.95E-18	-2.31E-05	-3.68E-05	-5.98E-05	-1.81E-06	-1.70E-05	-1.88E-05	-1.06E-05	-3.18E-05	-4.24E-05	-1.71E-07	-1.00E-05	-1.02E-05	4.17E-07	-1.10E-05	-1.06E-05	4.89E-06	3.50E-06	8.39E-06	1.10E-05	1.31E-05	2.41E-05	6.18E-06	3.72E-06	9.90E-06	0
-0.04	-1.55E-05	8.41E-06	-7.14E-06	-1.45E-05	2.30E-06	-1.22E-05	6.92E-19	6.86E-19	1.38E-18	-4.63E-05	-4.60E-06	-5.09E-05	2.13E-05	1.13E-05	3.26E-05	1.61E-05	1.06E-05	2.67E-05	-5.31E-06	3.13E-06	-2.18E-06	-2.79E-05	-7.38E-06	-3.53E-05	-3.04E-05	-7.87E-06	-3.83E-05	-2.88E-05	-1.48E-05	-4.37E-05	-2.92E-05	-2.09E-05	-5.01E-05	-2.06E-05	6.59E-06	-1.40E-05	1.83E-05	2.82E-05	4.65E-05	7.57E-18	4.12E-18	1.17E-17	2.23E-05	3.18E-05	5.41E-05	-1.37E-05	8.57E-08	-1.36E-05	4.28E-06	5.99E-06	1.03E-05	1.72E-05	8.25E-06	2.54E-05	-3.97E-05	-4.88E-06	-4.45E-05	-5.25E-05	-1.32E-05	-6.57E-05	4.13E-05	5.37E-05	9.50E-05	-1.65E-05	4.29E-06	-1.23E-05	1.89E-05	-2.52E-07	1.86E-05	7.47E-06	-1.37E-05	-6.19E-06	-2.48E-18	2.51E-18	2.89E-20	9.21E-06	-9.33E-06	-1.22E-07	1.46E-05	-9.41E-06	5.20E-06	8.90E-06	-1.18E-05	-2.91E-06	-3.50E-06	-7.52E-06	-1.10E-05	-8.14E-08	8.77E-07	7.96E-07	1.91E-06	1.48E-06	3.39E-06	-9.08E-06	-2.84E-06	-1.19E-05	2.10E-06	5.26E-07	2.63E-06	-9.05E-06	-1.82E-05	-2.73E-05	7.29E-06	-1.40E-05	-6.70E-06	-3.58E-18	1.09E-18	-2.49E-18	-2.03E-05	-3.64E-05	-5.67E-05	-2.98E-06	-1.86E-05	-2.16E-05	-9.69E-06	-3.26E-05	-4.23E-05	1.39E-06	-9.64E-06	-8.25E-06	-6.03E-07	-1.19E-05	-1.25E-05	2.60E-06	2.86E-06	5.46E-06	1.35E-05	2.01E-05	3.36E-05	5.61E-06	4.01E-06	9.62E-06	0
0	-1.63E-05	8.67E-06	-7.64E-06	-1.44E-05	2.63E-06	-1.17E-05	4.40E-19	-6.37E-19	-1.97E-19	-4.80E-05	-4.72E-06	-5.27E-05	2.25E-05	1.19E-05	3.44E-05	1.66E-05	1.08E-05	2.74E-05	-5.31E-06	3.13E-06	-2.18E-06	-2.85E-05	-7.52E-06	-3.60E-05	-3.12E-05	-8.23E-06	-3.94E-05	-2.99E-05	-1.55E-05	-4.54E-05	-2.99E-05	-2.16E-05	-5.15E-05	-2.14E-05	6.92E-06	-1.45E-05	1.82E-05	2.88E-05	4.70E-05	6.48E-18	3.53E-18	1.00E-17	2.21E-05	3.26E-05	5.47E-05	-1.37E-05	5.87E-07	-1.31E-05	4.20E-06	6.46E-06	1.07E-05	1.73E-05	8.50E-06	2.58E-05	-4.07E-05	-4.90E-06	-4.56E-05	-5.39E-05	-1.33E-05	-6.72E-05	4.26E-05	5.47E-05	9.73E-05	-1.70E-05	4.49E-06	-1.25E-05	1.94E-05	3.52E-07	1.97E-05	7.82E-06	-1.41E-05	-6.26E-06	-1.75E-18	2.33E-18	5.74E-19	8.82E-06	-9.98E-06	-1.16E-06	1.50E-05	-1.02E-05	4.86E-06	1.04E-05	-1.19E-05	-1.49E-06	-2.34E-06	-7.18E-06	-9.52E-06	-1.78E-06	4.10E-07	-1.37E-06	3.17E-07	9.44E-07	1.26E-06	-1.11E-05	-3.58E-06	-1.46E-05	6.96E-07	-5.09E-07	1.87E-07	-9.04E-06	-1.85E-05	-2.75E-05	9.37E-06	-1.29E-05	-3.50E-06	-2.89E-18	9.01E-19	-1.99E-18	-1.72E-05	-3.58E-05	-5.30E-05	-4.24E-06	-2.02E-05	-2.44E-05	-8.74E-06	-3.32E-05	-4.19E-05	3.03E-06	-9.14E-06	-6.11E-06	-1.71E-06	-1.28E-05	-1.45E-05	1.20E-07	2.16E-06	2.28E-06	1.62E-05	2.74E-05	4.36E-05	4.96E-06	4.30E-06	9.26E-06	0
0.04	-1.71E-05	8.90E-06	-8.15E-06	-1.42E-05	2.93E-06	-1.12E-05	1.78E-19	-1.99E-18	-1.82E-18	-4.96E-05	-4.86E-06	-5.44E-05	2.37E-05	1.24E-05	3.61E-05	1.71E-05	1.10E-05	2.81E-05	-5.27E-06	3.10E-06	-2.17E-06	-2.90E-05	-7.64E-06	-3.66E-05	-3.18E-05	-8.59E-06	-4.04E-05	-3.09E-05	-1.61E-05	-4.70E-05	-3.06E-05	-2.22E-05	-5.28E-05	-2.22E-05	7.20E-06	-1.50E-05	1.80E-05	2.94E-05	4.73E-05	5.32E-18	2.91E-18	8.22E-18	2.19E-05	3.32E-05	5.51E-05	-1.37E-05	1.08E-06	-1.26E-05	4.13E-06	6.89E-06	1.10E-05	1.75E-05	8.71E-06	2.62E-05	-4.16E-05	-4.92E-06	-4.66E-05	-5.51E-05	-1.34E-05	-6.85E-05	4.38E-05	5.56E-05	9.94E-05	-1.74E-05	4.68E-06	-1.27E-05	1.98E-05	1.00E-06	2.08E-05	8.15E-06	-1.44E-05	-6.29E-06	-9.82E-19	2.12E-18	1.14E-18	8.36E-06	-1.06E-05	-2.28E-06	1.54E-05	-1.09E-05	4.53E-06	1.19E-05	-1.19E-05	4.82E-08	-1.08E-06	-6.78E-06	-7.86E-06	-3.58E-06	-9.35E-08	-3.67E-06	-1.40E-06	3.60E-07	-1.04E-06	-1.31E-05	-4.37E-06	-1.75E-05	-8.18E-07	-1.62E-06	-2.44E-06	-9.07E-06	-1.86E-05	-2.77E-05	1.15E-05	-1.16E-05	-8.76E-08	-2.15E-18	6.98E-19	-1.45E-18	-1.39E-05	-3.50E-05	-4.89E-05	-5.57E-06	-2.18E-05	-2.73E-05	-7.72E-06	-3.37E-05	-4.14E-05	4.74E-06	-8.54E-06	-3.80E-06	-2.91E-06	-1.37E-05	-1.67E-05	-2.55E-06	1.40E-06	-1.15E-06	1.90E-05	3.52E-05	5.42E-05	4.23E-06	4.60E-06	8.83E-06	0
0.08	-1.78E-05	9.09E-06	-8.66E-06	-1.39E-05	3.22E-06	-1.07E-05	-9.24E-20	-3.37E-18	-3.47E-18	-5.10E-05	-5.01E-06	-5.60E-05	2.48E-05	1.29E-05	3.77E-05	1.75E-05	1.11E-05	2.86E-05	-5.20E-06	3.04E-06	-2.16E-06	-2.94E-05	-7.74E-06	-3.72E-05	-3.23E-05	-8.95E-06	-4.12E-05	-3.18E-05	-1.67E-05	-4.85E-05	-3.11E-05	-2.28E-05	-5.39E-05	-2.30E-05	7.42E-06	-1.55E-05	1.77E-05	2.98E-05	4.75E-05	4.09E-18	2.24E-18	6.33E-18	2.16E-05	3.37E-05	5.53E-05	-1.37E-05	1.56E-06	-1.21E-05	4.06E-06	7.26E-06	1.13E-05	1.75E-05	8.88E-06	2.64E-05	-4.25E-05	-4.95E-06	-4.74E-05	-5.63E-05	-1.34E-05	-6.96E-05	4.49E-05	5.64E-05	0.000101378	-1.78E-05	4.87E-06	-1.29E-05	2.01E-05	1.70E-06	2.18E-05	8.48E-06	-1.47E-05	-6.26E-06	-1.77E-19	1.91E-18	1.73E-18	7.82E-06	-1.13E-05	-3.47E-06	1.58E-05	-1.16E-05	4.23E-06	1.35E-05	-1.18E-05	1.71E-06	2.71E-07	-6.34E-06	-6.07E-06	-5.47E-06	-6.30E-07	-6.10E-06	-3.22E-06	-2.69E-07	-3.49E-06	-1.53E-05	-5.21E-06	-2.05E-05	-2.43E-06	-2.82E-06	-5.24E-06	-9.14E-06	-1.86E-05	-2.78E-05	1.37E-05	-1.02E-05	3.53E-06	-1.38E-18	4.85E-19	-8.95E-19	-1.04E-05	-3.40E-05	-4.44E-05	-6.96E-06	-2.33E-05	-3.03E-05	-6.65E-06	-3.40E-05	-4.06E-05	6.52E-06	-7.86E-06	-1.33E-06	-4.20E-06	-1.46E-05	-1.88E-05	-5.40E-06	5.87E-07	-4.81E-06	2.19E-05	4.32E-05	6.51E-05	3.42E-06	4.90E-06	8.32E-06	0
0.12	-1.84E-05	9.24E-06	-9.18E-06	-1.35E-05	3.47E-06	-1.00E-05	-3.68E-19	-4.76E-18	-5.12E-18	-5.24E-05	-5.17E-06	-5.75E-05	2.60E-05	1.33E-05	3.93E-05	1.80E-05	1.11E-05	2.91E-05	-5.09E-06	2.96E-06	-2.13E-06	-2.98E-05	-7.82E-06	-3.76E-05	-3.27E-05	-9.31E-06	-4.20E-05	-3.26E-05	-1.72E-05	-4.99E-05	-3.16E-05	-2.33E-05	-5.49E-05	-2.37E-05	7.60E-06	-1.61E-05	1.73E-05	3.02E-05	4.75E-05	2.82E-18	1.54E-18	4.36E-18	2.12E-05	3.41E-05	5.52E-05	-1.36E-05	2.04E-06	-1.15E-05	4.01E-06	7.59E-06	1.16E-05	1.75E-05	9.02E-06	2.65E-05	-4.32E-05	-4.99E-06	-4.82E-05	-5.73E-05	-1.34E-05	-7.06E-05	4.60E-05	5.72E-05	0.000103228	-1.81E-05	5.06E-06	-1.31E-05	2.04E-05	2.43E-06	2.28E-05	8.81E-06	-1.50E-05	-6.19E-06	6.53E-19	1.68E-18	2.33E-18	7.22E-06	-1.20E-05	-4.75E-06	1.62E-05	-1.23E-05	3.97E-06	1.52E-05	-1.17E-05	3.48E-06	1.70E-06	-5.84E-06	-4.14E-06	-7.44E-06	-1.20E-06	-8.64E-06	-5.16E-06	-9.39E-07	-6.10E-06	-1.75E-05	-6.08E-06	-2.36E-05	-4.13E-06	-4.08E-06	-8.21E-06	-9.22E-06	-1.86E-05	-2.78E-05	1.59E-05	-8.62E-06	7.32E-06	-5.82E-19	2.65E-19	-3.16E-19	-6.70E-06	-3.27E-05	-3.94E-05	-8.41E-06	-2.48E-05	-3.32E-05	-5.53E-06	-3.42E-05	-3.97E-05	8.36E-06	-7.09E-06	1.27E-06	-5.56E-06	-1.55E-05	-2.11E-05	-8.41E-06	-2.75E-07	-8.68E-06	2.49E-05	5.15E-05	7.64E-05	2.54E-06	5.19E-06	7.74E-06	0
0.16	-1.91E-05	9.36E-06	-9.69E-06	-1.30E-05	3.71E-06	-9.34E-06	-6.47E-19	-6.13E-18	-6.78E-18	-5.36E-05	-5.33E-06	-5.90E-05	2.71E-05	1.37E-05	4.08E-05	1.84E-05	1.11E-05	2.96E-05	-4.94E-06	2.84E-06	-2.10E-06	-3.00E-05	-7.88E-06	-3.79E-05	-3.31E-05	-9.67E-06	-4.28E-05	-3.34E-05	-1.78E-05	-5.12E-05	-3.19E-05	-2.38E-05	-5.57E-05	-2.44E-05	7.72E-06	-1.66E-05	1.70E-05	3.05E-05	4.74E-05	1.52E-18	8.16E-19	2.34E-18	2.07E-05	3.44E-05	5.51E-05	-1.34E-05	2.50E-06	-1.09E-05	3.96E-06	7.88E-06	1.18E-05	1.75E-05	9.11E-06	2.66E-05	-4.38E-05	-5.04E-06	-4.88E-05	-5.81E-05	-1.33E-05	-7.14E-05	4.71E-05	5.79E-05	0.000104955	-1.84E-05	5.25E-06	-1.32E-05	2.07E-05	3.20E-06	2.39E-05	9.13E-06	-1.52E-05	-6.06E-06	1.50E-18	1.43E-18	2.94E-18	6.56E-06	-1.27E-05	-6.10E-06	1.67E-05	-1.29E-05	3.75E-06	1.69E-05	-1.16E-05	5.35E-06	3.21E-06	-5.30E-06	-2.10E-06	-9.49E-06	-1.79E-06	-1.13E-05	-7.19E-06	-1.65E-06	-8.84E-06	-1.97E-05	-6.99E-06	-2.67E-05	-5.92E-06	-5.40E-06	-1.13E-05	-9.33E-06	-1.84E-05	-2.78E-05	1.82E-05	-6.93E-06	1.13E-05	2.37E-19	4.02E-20	2.77E-19	-2.82E-06	-3.13E-05	-3.41E-05	-9.90E-06	-2.62E-05	-3.61E-05	-4.36E-06	-3.42E-05	-3.86E-05	1.02E-05	-6.25E-06	3.99E-06	-7.00E-06	-1.64E-05	-2.34E-05	-1.16E-05	-1.18E-06	-1.28E-05	2.80E-05	6.00E-05	8.81E-05	1.60E-06	5.48E-06	7.08E-06	0
0.2	-1.97E-05	9.44E-06	-1.02E-05	-1.25E-05	3.92E-06	-8.60E-06	-9.26E-19	-7.47E-18	-8.40E-18	-5.48E-05	-5.51E-06	-6.03E-05	2.82E-05	1.40E-05	4.22E-05	1.89E-05	1.10E-05	2.99E-05	-4.76E-06	2.70E-06	-2.06E-06	-3.02E-05	-7.92E-06	-3.82E-05	-3.34E-05	-1.00E-05	-4.34E-05	-3.41E-05	-1.83E-05	-5.24E-05	-3.22E-05	-2.42E-05	-5.64E-05	-2.50E-05	7.80E-06	-1.72E-05	1.66E-05	3.07E-05	4.72E-05	2.01E-19	7.43E-20	2.76E-19	2.02E-05	3.45E-05	5.47E-05	-1.33E-05	2.95E-06	-1.03E-05	3.92E-06	8.13E-06	1.20E-05	1.74E-05	9.17E-06	2.66E-05	-4.43E-05	-5.10E-06	-4.94E-05	-5.89E-05	-1.32E-05	-7.21E-05	4.81E-05	5.85E-05	0.00010657	-1.86E-05	5.43E-06	-1.32E-05	2.08E-05	4.00E-06	2.48E-05	9.46E-06	-1.53E-05	-5.88E-06	2.36E-18	1.18E-18	3.54E-18	5.83E-06	-1.33E-05	-7.51E-06	1.71E-05	-1.35E-05	3.59E-06	1.87E-05	-1.14E-05	7.31E-06	4.78E-06	-4.73E-06	4.81E-08	-1.16E-05	-2.41E-06	-1.40E-05	-9.31E-06	-2.39E-06	-1.17E-05	-2.21E-05	-7.94E-06	-3.00E-05	-7.79E-06	-6.79E-06	-1.46E-05	-9.45E-06	-1.82E-05	-2.76E-05	2.05E-05	-5.14E-06	1.54E-05	1.07E-18	-1.87E-19	8.78E-19	1.23E-06	-2.96E-05	-2.84E-05	-1.14E-05	-2.76E-05	-3.90E-05	-3.16E-06	-3.42E-05	-3.73E-05	1.21E-05	-5.34E-06	6.81E-06	-8.51E-06	-1.73E-05	-2.58E-05	-1.49E-05	-2.13E-06	-1.70E-05	3.12E-05	6.88E-05	1.00E-04	5.94E-07	5.77E-06	6.37E-06	0
0.24	-2.02E-05	9.49E-06	-1.07E-05	-1.19E-05	4.11E-06	-7.80E-06	-1.20E-18	-8.78E-18	-9.98E-18	-5.58E-05	-5.70E-06	-6.15E-05	2.93E-05	1.43E-05	4.36E-05	1.93E-05	1.09E-05	3.02E-05	-4.56E-06	2.53E-06	-2.02E-06	-3.04E-05	-7.95E-06	-3.83E-05	-3.36E-05	-1.04E-05	-4.40E-05	-3.48E-05	-1.88E-05	-5.36E-05	-3.24E-05	-2.46E-05	-5.70E-05	-2.57E-05	7.83E-06	-1.79E-05	1.61E-05	3.08E-05	4.69E-05	-1.12E-18	-6.78E-19	-1.80E-18	1.96E-05	3.46E-05	5.42E-05	-1.30E-05	3.39E-06	-9.66E-06	3.88E-06	8.33E-06	1.22E-05	1.73E-05	9.20E-06	2.65E-05	-4.47E-05	-5.18E-06	-4.99E-05	-5.96E-05	-1.31E-05	-7.27E-05	4.91E-05	5.90E-05	0.000108085	-1.88E-05	5.61E-06	-1.32E-05	2.10E-05	4.84E-06	2.58E-05	9.79E-06	-1.54E-05	-5.65E-06	3.21E-18	9.28E-19	4.14E-18	5.04E-06	-1.40E-05	-9.00E-06	1.76E-05	-1.41E-05	3.50E-06	2.05E-05	-1.11E-05	9.35E-06	6.40E-06	-4.12E-06	2.28E-06	-1.37E-05	-3.06E-06	-1.68E-05	-1.15E-05	-3.16E-06	-1.47E-05	-2.45E-05	-8.91E-06	-3.34E-05	-9.73E-06	-8.23E-06	-1.80E-05	-9.58E-06	-1.78E-05	-2.74E-05	2.28E-05	-3.25E-06	1.96E-05	1.90E-18	-4.15E-19	1.48E-18	5.41E-06	-2.78E-05	-2.24E-05	-1.29E-05	-2.90E-05	-4.19E-05	-1.92E-06	-3.40E-05	-3.59E-05	1.41E-05	-4.36E-06	9.71E-06	-1.01E-05	-1.81E-05	-2.82E-05	-1.83E-05	-3.12E-06	-2.14E-05	3.45E-05	7.76E-05	0.000112044	-4.70E-07	6.05E-06	5.58E-06	0
0.28	-2.08E-05	9.52E-06	-1.12E-05	-1.12E-05	4.29E-06	-6.96E-06	-1.48E-18	-1.00E-17	-1.15E-17	-5.68E-05	-5.89E-06	-6.27E-05	3.03E-05	1.46E-05	4.49E-05	1.97E-05	1.07E-05	3.04E-05	-4.32E-06	2.34E-06	-1.97E-06	-3.05E-05	-7.96E-06	-3.84E-05	-3.38E-05	-1.07E-05	-4.45E-05	-3.54E-05	-1.92E-05	-5.46E-05	-3.25E-05	-2.49E-05	-5.75E-05	-2.63E-05	7.83E-06	-1.85E-05	1.56E-05	3.09E-05	4.65E-05	-2.43E-18	-1.43E-18	-3.87E-18	1.90E-05	3.46E-05	5.35E-05	-1.28E-05	3.82E-06	-8.99E-06	3.84E-06	8.50E-06	1.23E-05	1.71E-05	9.20E-06	2.63E-05	-4.51E-05	-5.26E-06	-5.04E-05	-6.02E-05	-1.29E-05	-7.31E-05	5.00E-05	5.95E-05	0.000109511	-1.90E-05	5.79E-06	-1.32E-05	2.10E-05	5.70E-06	2.67E-05	1.01E-05	-1.55E-05	-5.37E-06	4.05E-18	6.69E-19	4.72E-18	4.20E-06	-1.47E-05	-1.05E-05	1.81E-05	-1.46E-05	3.48E-06	2.23E-05	-1.09E-05	1.15E-05	8.06E-06	-3.48E-06	4.58E-06	-1.59E-05	-3.72E-06	-1.97E-05	-1.37E-05	-3.96E-06	-1.77E-05	-2.69E-05	-9.92E-06	-3.68E-05	-1.17E-05	-9.71E-06	-2.14E-05	-9.71E-06	-1.74E-05	-2.71E-05	2.51E-05	-1.27E-06	2.38E-05	2.72E-18	-6.41E-19	2.08E-18	9.71E-06	-2.59E-05	-1.61E-05	-1.45E-05	-3.02E-05	-4.47E-05	-6.57E-07	-3.37E-05	-3.43E-05	1.60E-05	-3.34E-06	1.27E-05	-1.17E-05	-1.89E-05	-3.06E-05	-2.18E-05	-4.13E-06	-2.59E-05	3.77E-05	8.65E-05	0.000124242	-1.59E-06	6.33E-06	4.75E-06	0
0.32	-2.13E-05	9.52E-06	-1.18E-05	-1.05E-05	4.45E-06	-6.07E-06	-1.74E-18	-1.12E-17	-1.29E-17	-5.77E-05	-6.10E-06	-6.38E-05	3.13E-05	1.48E-05	4.62E-05	2.01E-05	1.05E-05	3.06E-05	-4.06E-06	2.13E-06	-1.92E-06	-3.05E-05	-7.96E-06	-3.85E-05	-3.39E-05	-1.11E-05	-4.50E-05	-3.60E-05	-1.96E-05	-5.56E-05	-3.26E-05	-2.52E-05	-5.78E-05	-2.69E-05	7.78E-06	-1.92E-05	1.51E-05	3.09E-05	4.60E-05	-3.72E-18	-2.18E-18	-5.90E-18	1.83E-05	3.44E-05	5.28E-05	-1.25E-05	4.24E-06	-8.31E-06	3.80E-06	8.64E-06	1.24E-05	1.69E-05	9.17E-06	2.61E-05	-4.54E-05	-5.36E-06	-5.07E-05	-6.07E-05	-1.27E-05	-7.34E-05	5.09E-05	6.00E-05	0.000110862	-1.91E-05	5.96E-06	-1.32E-05	2.11E-05	6.58E-06	2.76E-05	1.05E-05	-1.55E-05	-5.03E-06	4.88E-18	4.10E-19	5.28E-18	3.30E-06	-1.54E-05	-1.21E-05	1.87E-05	-1.51E-05	3.54E-06	2.42E-05	-1.05E-05	1.36E-05	9.76E-06	-2.83E-06	6.93E-06	-1.82E-05	-4.39E-06	-2.26E-05	-1.60E-05	-4.77E-06	-2.08E-05	-2.93E-05	-1.09E-05	-4.03E-05	-1.38E-05	-1.12E-05	-2.50E-05	-9.82E-06	-1.69E-05	-2.67E-05	2.74E-05	7.72E-07	2.82E-05	3.53E-18	-8.61E-19	2.67E-18	1.41E-05	-2.38E-05	-9.65E-06	-1.60E-05	-3.14E-05	-4.74E-05	6.27E-07	-3.33E-05	-3.26E-05	1.80E-05	-2.28E-06	1.57E-05	-1.34E-05	-1.98E-05	-3.31E-05	-2.54E-05	-5.17E-06	-3.06E-05	4.11E-05	9.54E-05	0.000136492	-2.75E-06	6.60E-06	3.85E-06	0
0.36	-2.18E-05	9.50E-06	-1.23E-05	-9.73E-06	4.60E-06	-5.14E-06	-1.99E-18	-1.23E-17	-1.43E-17	-5.86E-05	-6.31E-06	-6.49E-05	3.23E-05	1.50E-05	4.74E-05	2.05E-05	1.02E-05	3.08E-05	-3.77E-06	1.91E-06	-1.86E-06	-3.05E-05	-7.96E-06	-3.84E-05	-3.40E-05	-1.15E-05	-4.54E-05	-3.65E-05	-2.00E-05	-5.65E-05	-3.26E-05	-2.55E-05	-5.81E-05	-2.76E-05	7.70E-06	-1.99E-05	1.45E-05	3.09E-05	4.55E-05	-4.96E-18	-2.92E-18	-7.88E-18	1.77E-05	3.43E-05	5.19E-05	-1.23E-05	4.65E-06	-7.62E-06	3.77E-06	8.75E-06	1.25E-05	1.67E-05	9.13E-06	2.58E-05	-4.56E-05	-5.46E-06	-5.11E-05	-6.11E-05	-1.25E-05	-7.36E-05	5.17E-05	6.04E-05	0.000112152	-1.92E-05	6.13E-06	-1.31E-05	2.10E-05	7.47E-06	2.85E-05	1.08E-05	-1.55E-05	-4.64E-06	5.67E-18	1.53E-19	5.82E-18	2.36E-06	-1.62E-05	-1.38E-05	1.93E-05	-1.56E-05	3.70E-06	2.60E-05	-1.02E-05	1.58E-05	1.15E-05	-2.16E-06	9.32E-06	-2.04E-05	-5.08E-06	-2.55E-05	-1.84E-05	-5.61E-06	-2.40E-05	-3.18E-05	-1.20E-05	-4.38E-05	-1.59E-05	-1.28E-05	-2.86E-05	-9.92E-06	-1.63E-05	-2.62E-05	2.97E-05	2.86E-06	3.26E-05	4.31E-18	-1.07E-18	3.24E-18	1.86E-05	-2.16E-05	-2.97E-06	-1.75E-05	-3.26E-05	-5.00E-05	1.92E-06	-3.28E-05	-3.08E-05	1.99E-05	-1.19E-06	1.87E-05	-1.51E-05	-2.05E-05	-3.56E-05	-2.91E-05	-6.23E-06	-3.53E-05	4.44E-05	0.000104292	0.000148725	-3.95E-06	6.86E-06	2.91E-06	0
0.4	-2.23E-05	9.46E-06	-1.28E-05	-8.90E-06	4.73E-06	-4.17E-06	-2.24E-18	-1.32E-17	-1.55E-17	-5.93E-05	-6.54E-06	-6.59E-05	3.33E-05	1.52E-05	4.85E-05	2.09E-05	9.91E-06	3.08E-05	-3.46E-06	1.66E-06	-1.80E-06	-3.04E-05	-7.94E-06	-3.84E-05	-3.40E-05	-1.18E-05	-4.58E-05	-3.69E-05	-2.04E-05	-5.74E-05	-3.25E-05	-2.58E-05	-5.83E-05	-2.82E-05	7.59E-06	-2.06E-05	1.40E-05	3.09E-05	4.49E-05	-6.14E-18	-3.64E-18	-9.79E-18	1.69E-05	3.40E-05	5.10E-05	-1.20E-05	5.05E-06	-6.93E-06	3.72E-06	8.84E-06	1.26E-05	1.65E-05	9.06E-06	2.55E-05	-4.58E-05	-5.58E-06	-5.14E-05	-6.15E-05	-1.23E-05	-7.38E-05	5.26E-05	6.08E-05	0.000113393	-1.93E-05	6.29E-06	-1.30E-05	2.10E-05	8.38E-06	2.94E-05	1.12E-05	-1.54E-05	-4.20E-06	6.42E-18	-9.76E-20	6.32E-18	1.37E-06	-1.69E-05	-1.55E-05	1.99E-05	-1.60E-05	3.96E-06	2.79E-05	-9.84E-06	1.81E-05	1.32E-05	-1.48E-06	1.17E-05	-2.26E-05	-5.77E-06	-2.84E-05	-2.07E-05	-6.45E-06	-2.72E-05	-3.42E-05	-1.30E-05	-4.73E-05	-1.80E-05	-1.43E-05	-3.23E-05	-9.99E-06	-1.56E-05	-2.56E-05	3.20E-05	4.99E-06	3.70E-05	5.06E-18	-1.28E-18	3.78E-18	2.31E-05	-1.93E-05	3.86E-06	-1.89E-05	-3.36E-05	-5.26E-05	3.23E-06	-3.22E-05	-2.90E-05	2.18E-05	-7.00E-08	2.17E-05	-1.68E-05	-2.13E-05	-3.81E-05	-3.28E-05	-7.30E-06	-4.01E-05	4.78E-05	0.000113077	0.00016087	-5.18E-06	7.11E-06	1.93E-06	0
0.44	-2.27E-05	9.41E-06	-1.33E-05	-8.03E-06	4.87E-06	-3.16E-06	-2.46E-18	-1.41E-17	-1.65E-17	-6.00E-05	-6.77E-06	-6.68E-05	3.43E-05	1.54E-05	4.97E-05	2.13E-05	9.57E-06	3.09E-05	-3.14E-06	1.40E-06	-1.74E-06	-3.03E-05	-7.93E-06	-3.83E-05	-3.40E-05	-1.22E-05	-4.62E-05	-3.74E-05	-2.08E-05	-5.82E-05	-3.24E-05	-2.60E-05	-5.84E-05	-2.88E-05	7.45E-06	-2.13E-05	1.34E-05	3.08E-05	4.42E-05	-7.26E-18	-4.33E-18	-1.16E-17	1.62E-05	3.38E-05	5.00E-05	-1.17E-05	5.45E-06	-6.24E-06	3.68E-06	8.91E-06	1.26E-05	1.62E-05	8.98E-06	2.52E-05	-4.60E-05	-5.72E-06	-5.17E-05	-6.18E-05	-1.20E-05	-7.38E-05	5.34E-05	6.12E-05	0.0001146	-1.93E-05	6.46E-06	-1.29E-05	2.09E-05	9.29E-06	3.02E-05	1.16E-05	-1.53E-05	-3.70E-06	7.12E-18	-3.40E-19	6.78E-18	3.47E-07	-1.76E-05	-1.72E-05	2.07E-05	-1.63E-05	4.34E-06	2.98E-05	-9.46E-06	2.03E-05	1.49E-05	-8.03E-07	1.41E-05	-2.49E-05	-6.47E-06	-3.13E-05	-2.31E-05	-7.30E-06	-3.04E-05	-3.67E-05	-1.41E-05	-5.08E-05	-2.01E-05	-1.59E-05	-3.61E-05	-1.00E-05	-1.49E-05	-2.49E-05	3.42E-05	7.13E-06	4.14E-05	5.77E-18	-1.47E-18	4.30E-18	2.77E-05	-1.69E-05	1.08E-05	-2.03E-05	-3.46E-05	-5.49E-05	4.53E-06	-3.15E-05	-2.70E-05	2.36E-05	1.06E-06	2.47E-05	-1.86E-05	-2.20E-05	-4.06E-05	-3.66E-05	-8.38E-06	-4.50E-05	5.11E-05	0.000121712	0.000172859	-6.44E-06	7.35E-06	9.06E-07	0
0.48	-2.32E-05	9.35E-06	-1.38E-05	-7.11E-06	5.00E-06	-2.11E-06	-2.67E-18	-1.48E-17	-1.75E-17	-6.07E-05	-7.01E-06	-6.77E-05	3.53E-05	1.55E-05	5.08E-05	2.17E-05	9.22E-06	3.09E-05	-2.80E-06	1.13E-06	-1.67E-06	-3.02E-05	-7.91E-06	-3.81E-05	-3.40E-05	-1.25E-05	-4.65E-05	-3.77E-05	-2.12E-05	-5.89E-05	-3.23E-05	-2.62E-05	-5.85E-05	-2.94E-05	7.29E-06	-2.21E-05	1.28E-05	3.08E-05	4.36E-05	-8.28E-18	-4.99E-18	-1.33E-17	1.55E-05	3.34E-05	4.89E-05	-1.14E-05	5.84E-06	-5.55E-06	3.62E-06	8.96E-06	1.26E-05	1.59E-05	8.89E-06	2.48E-05	-4.61E-05	-5.86E-06	-5.19E-05	-6.21E-05	-1.18E-05	-7.39E-05	5.42E-05	6.16E-05	0.000115786	-1.94E-05	6.62E-06	-1.27E-05	2.08E-05	1.02E-05	3.10E-05	1.20E-05	-1.51E-05	-3.15E-06	7.76E-18	-5.71E-19	7.19E-18	-7.14E-07	-1.83E-05	-1.90E-05	2.15E-05	-1.66E-05	4.83E-06	3.17E-05	-9.07E-06	2.26E-05	1.66E-05	-1.31E-07	1.65E-05	-2.71E-05	-7.16E-06	-3.42E-05	-2.54E-05	-8.15E-06	-3.35E-05	-3.92E-05	-1.52E-05	-5.43E-05	-2.23E-05	-1.75E-05	-3.98E-05	-1.00E-05	-1.41E-05	-2.41E-05	3.64E-05	9.27E-06	4.57E-05	6.42E-18	-1.64E-18	4.78E-18	3.22E-05	-1.45E-05	1.78E-05	-2.16E-05	-3.55E-05	-5.71E-05	5.83E-06	-3.08E-05	-2.50E-05	2.54E-05	2.18E-06	2.76E-05	-2.03E-05	-2.28E-05	-4.31E-05	-4.03E-05	-9.47E-06	-4.98E-05	5.45E-05	0.000130145	0.000184623	-7.72E-06	7.57E-06	-1.46E-07	0
0.52	-2.36E-05	9.29E-06	-1.43E-05	-6.17E-06	5.13E-06	-1.04E-06	-2.85E-18	-1.54E-17	-1.82E-17	-6.14E-05	-7.26E-06	-6.86E-05	3.62E-05	1.56E-05	5.18E-05	2.21E-05	8.85E-06	3.09E-05	-2.45E-06	8.51E-07	-1.60E-06	-3.01E-05	-7.90E-06	-3.80E-05	-3.39E-05	-1.29E-05	-4.68E-05	-3.81E-05	-2.15E-05	-5.96E-05	-3.21E-05	-2.64E-05	-5.85E-05	-3.00E-05	7.12E-06	-2.29E-05	1.22E-05	3.07E-05	4.29E-05	-9.21E-18	-5.60E-18	-1.48E-17	1.47E-05	3.31E-05	4.78E-05	-1.11E-05	6.23E-06	-4.87E-06	3.55E-06	9.01E-06	1.26E-05	1.56E-05	8.80E-06	2.44E-05	-4.62E-05	-6.01E-06	-5.22E-05	-6.23E-05	-1.16E-05	-7.39E-05	5.49E-05	6.20E-05	0.000116966	-1.94E-05	6.78E-06	-1.26E-05	2.07E-05	1.11E-05	3.18E-05	1.24E-05	-1.49E-05	-2.55E-06	8.34E-18	-7.89E-19	7.55E-18	-1.81E-06	-1.90E-05	-2.08E-05	2.23E-05	-1.69E-05	5.44E-06	3.35E-05	-8.67E-06	2.49E-05	1.83E-05	5.28E-07	1.88E-05	-2.92E-05	-7.85E-06	-3.71E-05	-2.77E-05	-9.00E-06	-3.67E-05	-4.16E-05	-1.63E-05	-5.78E-05	-2.45E-05	-1.91E-05	-4.35E-05	-9.93E-06	-1.33E-05	-2.32E-05	3.86E-05	1.14E-05	5.00E-05	7.01E-18	-1.80E-18	5.21E-18	3.68E-05	-1.20E-05	2.48E-05	-2.28E-05	-3.63E-05	-5.92E-05	7.12E-06	-3.01E-05	-2.30E-05	2.71E-05	3.30E-06	3.04E-05	-2.21E-05	-2.35E-05	-4.56E-05	-4.41E-05	-1.05E-05	-5.46E-05	5.78E-05	0.000138324	0.000196096	-9.01E-06	7.78E-06	-1.22E-06	0
0.56	-2.40E-05	9.22E-06	-1.48E-05	-5.21E-06	5.27E-06	5.84E-08	-3.02E-18	-1.58E-17	-1.88E-17	-6.20E-05	-7.52E-06	-6.95E-05	3.71E-05	1.57E-05	5.29E-05	2.24E-05	8.48E-06	3.09E-05	-2.09E-06	5.66E-07	-1.52E-06	-2.99E-05	-7.89E-06	-3.78E-05	-3.39E-05	-1.32E-05	-4.71E-05	-3.84E-05	-2.19E-05	-6.03E-05	-3.19E-05	-2.66E-05	-5.85E-05	-3.07E-05	6.94E-06	-2.37E-05	1.17E-05	3.06E-05	4.23E-05	-1.00E-17	-6.16E-18	-1.62E-17	1.40E-05	3.28E-05	4.68E-05	-1.08E-05	6.61E-06	-4.21E-06	3.47E-06	9.05E-06	1.25E-05	1.53E-05	8.71E-06	2.40E-05	-4.63E-05	-6.17E-06	-5.25E-05	-6.25E-05	-1.13E-05	-7.39E-05	5.57E-05	6.25E-05	0.000118152	-1.94E-05	6.93E-06	-1.24E-05	2.05E-05	1.20E-05	3.26E-05	1.28E-05	-1.47E-05	-1.90E-06	8.84E-18	-9.90E-19	7.85E-18	-2.92E-06	-1.97E-05	-2.26E-05	2.33E-05	-1.71E-05	6.19E-06	3.54E-05	-8.27E-06	2.71E-05	1.99E-05	1.17E-06	2.11E-05	-3.14E-05	-8.53E-06	-3.99E-05	-3.00E-05	-9.84E-06	-3.98E-05	-4.40E-05	-1.73E-05	-6.13E-05	-2.66E-05	-2.06E-05	-4.72E-05	-9.79E-06	-1.24E-05	-2.22E-05	4.07E-05	1.35E-05	5.41E-05	7.54E-18	-1.94E-18	5.60E-18	4.13E-05	-9.56E-06	3.17E-05	-2.40E-05	-3.71E-05	-6.11E-05	8.38E-06	-2.93E-05	-2.09E-05	2.88E-05	4.39E-06	3.32E-05	-2.39E-05	-2.42E-05	-4.81E-05	-4.78E-05	-1.16E-05	-5.94E-05	6.10E-05	0.000146199	0.000207213	-1.03E-05	7.98E-06	-2.32E-06	0
0.6	-2.45E-05	9.16E-06	-1.53E-05	-4.24E-06	5.42E-06	1.18E-06	-3.15E-18	-1.60E-17	-1.92E-17	-6.26E-05	-7.78E-06	-7.04E-05	3.81E-05	1.58E-05	5.39E-05	2.28E-05	8.10E-06	3.09E-05	-1.72E-06	2.77E-07	-1.44E-06	-2.97E-05	-7.89E-06	-3.76E-05	-3.38E-05	-1.36E-05	-4.74E-05	-3.87E-05	-2.22E-05	-6.10E-05	-3.17E-05	-2.68E-05	-5.85E-05	-3.13E-05	6.75E-06	-2.46E-05	1.11E-05	3.06E-05	4.16E-05	-1.07E-17	-6.67E-18	-1.74E-17	1.33E-05	3.25E-05	4.57E-05	-1.06E-05	7.00E-06	-3.56E-06	3.37E-06	9.10E-06	1.25E-05	1.50E-05	8.63E-06	2.36E-05	-4.64E-05	-6.34E-06	-5.27E-05	-6.28E-05	-1.11E-05	-7.39E-05	5.64E-05	6.29E-05	0.000119356	-1.94E-05	7.09E-06	-1.23E-05	2.04E-05	1.29E-05	3.33E-05	1.33E-05	-1.45E-05	-1.20E-06	9.26E-18	-1.17E-18	8.09E-18	-4.06E-06	-2.04E-05	-2.45E-05	2.43E-05	-1.72E-05	7.07E-06	3.72E-05	-7.88E-06	2.93E-05	2.15E-05	1.78E-06	2.33E-05	-3.34E-05	-9.20E-06	-4.26E-05	-3.22E-05	-1.07E-05	-4.28E-05	-4.63E-05	-1.84E-05	-6.47E-05	-2.88E-05	-2.22E-05	-5.09E-05	-9.58E-06	-1.15E-05	-2.11E-05	4.27E-05	1.55E-05	5.82E-05	8.00E-18	-2.06E-18	5.94E-18	4.57E-05	-7.11E-06	3.86E-05	-2.50E-05	-3.77E-05	-6.27E-05	9.63E-06	-2.85E-05	-1.89E-05	3.04E-05	5.46E-06	3.58E-05	-2.57E-05	-2.48E-05	-5.05E-05	-5.15E-05	-1.27E-05	-6.42E-05	6.42E-05	0.000153723	0.000217915	-1.16E-05	8.16E-06	-3.43E-06	0
0.64	-2.49E-05	9.10E-06	-1.58E-05	-3.26E-06	5.58E-06	2.32E-06	-3.26E-18	-1.61E-17	-1.94E-17	-6.33E-05	-8.05E-06	-7.13E-05	3.90E-05	1.59E-05	5.49E-05	2.31E-05	7.72E-06	3.08E-05	-1.35E-06	-1.21E-08	-1.36E-06	-2.96E-05	-7.89E-06	-3.75E-05	-3.38E-05	-1.39E-05	-4.77E-05	-3.90E-05	-2.26E-05	-6.16E-05	-3.15E-05	-2.70E-05	-5.85E-05	-3.20E-05	6.56E-06	-2.54E-05	1.05E-05	3.05E-05	4.11E-05	-1.13E-17	-7.12E-18	-1.84E-17	1.25E-05	3.21E-05	4.47E-05	-1.03E-05	7.39E-06	-2.93E-06	3.25E-06	9.15E-06	1.24E-05	1.46E-05	8.55E-06	2.32E-05	-4.65E-05	-6.52E-06	-5.31E-05	-6.30E-05	-1.09E-05	-7.39E-05	5.72E-05	6.34E-05	0.000120592	-1.93E-05	7.24E-06	-1.21E-05	2.02E-05	1.38E-05	3.40E-05	1.38E-05	-1.43E-05	-4.48E-07	9.60E-18	-1.34E-18	8.26E-18	-5.21E-06	-2.11E-05	-2.63E-05	2.54E-05	-1.73E-05	8.09E-06	3.89E-05	-7.50E-06	3.14E-05	2.30E-05	2.37E-06	2.54E-05	-3.54E-05	-9.85E-06	-4.53E-05	-3.43E-05	-1.15E-05	-4.58E-05	-4.87E-05	-1.94E-05	-6.81E-05	-3.09E-05	-2.37E-05	-5.46E-05	-9.29E-06	-1.06E-05	-1.99E-05	4.46E-05	1.75E-05	6.21E-05	8.37E-18	-2.16E-18	6.21E-18	5.01E-05	-4.70E-06	4.54E-05	-2.59E-05	-3.83E-05	-6.42E-05	1.08E-05	-2.77E-05	-1.69E-05	3.19E-05	6.48E-06	3.83E-05	-2.74E-05	-2.55E-05	-5.29E-05	-5.51E-05	-1.37E-05	-6.88E-05	6.73E-05	0.000160852	0.000228143	-1.29E-05	8.32E-06	-4.55E-06	0
0.68	-2.54E-05	9.05E-06	-1.63E-05	-2.28E-06	5.75E-06	3.48E-06	-3.34E-18	-1.60E-17	-1.94E-17	-6.39E-05	-8.32E-06	-7.22E-05	3.99E-05	1.61E-05	5.59E-05	2.34E-05	7.36E-06	3.08E-05	-9.77E-07	-2.99E-07	-1.28E-06	-2.94E-05	-7.91E-06	-3.73E-05	-3.37E-05	-1.42E-05	-4.80E-05	-3.93E-05	-2.30E-05	-6.22E-05	-3.13E-05	-2.72E-05	-5.85E-05	-3.27E-05	6.38E-06	-2.63E-05	9.97E-06	3.06E-05	4.05E-05	-1.17E-17	-7.50E-18	-1.92E-17	1.19E-05	3.19E-05	4.37E-05	-1.01E-05	7.78E-06	-2.32E-06	3.11E-06	9.22E-06	1.23E-05	1.43E-05	8.48E-06	2.28E-05	-4.67E-05	-6.70E-06	-5.34E-05	-6.33E-05	-1.07E-05	-7.39E-05	5.79E-05	6.39E-05	0.00012187	-1.93E-05	7.39E-06	-1.19E-05	2.00E-05	1.47E-05	3.47E-05	1.43E-05	-1.40E-05	3.44E-07	9.84E-18	-1.48E-18	8.36E-18	-6.38E-06	-2.18E-05	-2.82E-05	2.66E-05	-1.73E-05	9.25E-06	4.06E-05	-7.13E-06	3.35E-05	2.45E-05	2.91E-06	2.74E-05	-3.74E-05	-1.05E-05	-4.78E-05	-3.64E-05	-1.23E-05	-4.87E-05	-5.09E-05	-2.04E-05	-7.13E-05	-3.30E-05	-2.52E-05	-5.81E-05	-8.91E-06	-9.68E-06	-1.86E-05	4.65E-05	1.94E-05	6.58E-05	8.66E-18	-2.23E-18	6.43E-18	5.44E-05	-2.35E-06	5.20E-05	-2.66E-05	-3.88E-05	-6.55E-05	1.20E-05	-2.70E-05	-1.49E-05	3.32E-05	7.45E-06	4.07E-05	-2.91E-05	-2.61E-05	-5.52E-05	-5.87E-05	-1.47E-05	-7.34E-05	7.03E-05	0.000167546	0.000237845	-1.41E-05	8.47E-06	-5.66E-06	0
0.72	-2.58E-05	9.02E-06	-1.68E-05	-1.30E-06	5.95E-06	4.65E-06	-3.39E-18	-1.58E-17	-1.92E-17	-6.46E-05	-8.59E-06	-7.32E-05	4.07E-05	1.62E-05	5.69E-05	2.38E-05	7.01E-06	3.08E-05	-6.03E-07	-5.82E-07	-1.19E-06	-2.93E-05	-7.94E-06	-3.72E-05	-3.37E-05	-1.46E-05	-4.83E-05	-3.95E-05	-2.33E-05	-6.28E-05	-3.11E-05	-2.74E-05	-5.85E-05	-3.34E-05	6.21E-06	-2.72E-05	9.44E-06	3.06E-05	4.01E-05	-1.20E-17	-7.82E-18	-1.98E-17	1.12E-05	3.16E-05	4.28E-05	-9.91E-06	8.17E-06	-1.74E-06	2.94E-06	9.30E-06	1.22E-05	1.40E-05	8.44E-06	2.25E-05	-4.69E-05	-6.89E-06	-5.38E-05	-6.35E-05	-1.05E-05	-7.40E-05	5.87E-05	6.45E-05	0.0001232	-1.93E-05	7.54E-06	-1.18E-05	1.99E-05	1.55E-05	3.54E-05	1.49E-05	-1.37E-05	1.18E-06	9.98E-18	-1.59E-18	8.39E-18	-7.55E-06	-2.25E-05	-3.01E-05	2.79E-05	-1.73E-05	1.06E-05	4.23E-05	-6.78E-06	3.55E-05	2.59E-05	3.42E-06	2.93E-05	-3.92E-05	-1.11E-05	-5.03E-05	-3.84E-05	-1.30E-05	-5.14E-05	-5.31E-05	-2.14E-05	-7.45E-05	-3.50E-05	-2.66E-05	-6.16E-05	-8.44E-06	-8.76E-06	-1.72E-05	4.83E-05	2.11E-05	6.94E-05	8.87E-18	-2.28E-18	6.59E-18	5.85E-05	-6.33E-08	5.84E-05	-2.73E-05	-3.92E-05	-6.65E-05	1.32E-05	-2.62E-05	-1.30E-05	3.45E-05	8.36E-06	4.29E-05	-3.08E-05	-2.67E-05	-5.75E-05	-6.21E-05	-1.57E-05	-7.78E-05	7.32E-05	0.00017377	0.000246974	-1.54E-05	8.60E-06	-6.78E-06	0
0.76	-2.63E-05	9.00E-06	-1.73E-05	-3.37E-07	6.16E-06	5.83E-06	-3.41E-18	-1.53E-17	-1.87E-17	-6.53E-05	-8.87E-06	-7.41E-05	4.16E-05	1.64E-05	5.80E-05	2.41E-05	6.69E-06	3.08E-05	-2.30E-07	-8.58E-07	-1.09E-06	-2.91E-05	-7.99E-06	-3.71E-05	-3.37E-05	-1.49E-05	-4.86E-05	-3.98E-05	-2.37E-05	-6.34E-05	-3.09E-05	-2.76E-05	-5.85E-05	-3.42E-05	6.05E-06	-2.82E-05	8.94E-06	3.07E-05	3.97E-05	-1.21E-17	-8.06E-18	-2.02E-17	1.06E-05	3.15E-05	4.20E-05	-9.75E-06	8.57E-06	-1.18E-06	2.75E-06	9.41E-06	1.22E-05	1.37E-05	8.41E-06	2.21E-05	-4.71E-05	-7.09E-06	-5.42E-05	-6.38E-05	-1.03E-05	-7.41E-05	5.95E-05	6.51E-05	0.000124591	-1.93E-05	7.68E-06	-1.16E-05	1.97E-05	1.63E-05	3.60E-05	1.55E-05	-1.35E-05	2.06E-06	1.00E-17	-1.68E-18	8.34E-18	-8.72E-06	-2.32E-05	-3.19E-05	2.92E-05	-1.72E-05	1.20E-05	4.39E-05	-6.45E-06	3.75E-05	2.72E-05	3.88E-06	3.10E-05	-4.10E-05	-1.17E-05	-5.26E-05	-4.03E-05	-1.37E-05	-5.40E-05	-5.52E-05	-2.24E-05	-7.76E-05	-3.70E-05	-2.80E-05	-6.49E-05	-7.87E-06	-7.85E-06	-1.57E-05	5.00E-05	2.28E-05	7.28E-05	8.98E-18	-2.30E-18	6.68E-18	6.25E-05	2.13E-06	6.46E-05	-2.77E-05	-3.96E-05	-6.73E-05	1.43E-05	-2.55E-05	-1.12E-05	3.57E-05	9.21E-06	4.49E-05	-3.25E-05	-2.73E-05	-5.98E-05	-6.54E-05	-1.66E-05	-8.21E-05	7.60E-05	0.000179492	0.000255488	-1.66E-05	8.72E-06	-7.88E-06	0
0.8	-2.68E-05	9.00E-06	-1.78E-05	6.08E-07	6.40E-06	7.01E-06	-3.40E-18	-1.47E-17	-1.81E-17	-6.60E-05	-9.15E-06	-7.51E-05	4.25E-05	1.65E-05	5.90E-05	2.44E-05	6.39E-06	3.08E-05	1.39E-07	-1.13E-06	-9.86E-07	-2.90E-05	-8.06E-06	-3.70E-05	-3.37E-05	-1.53E-05	-4.89E-05	-4.00E-05	-2.41E-05	-6.41E-05	-3.07E-05	-2.78E-05	-5.85E-05	-3.50E-05	5.91E-06	-2.91E-05	8.46E-06	3.09E-05	3.94E-05	-1.21E-17	-8.22E-18	-2.03E-17	9.97E-06	3.14E-05	4.13E-05	-9.64E-06	8.98E-06	-6.56E-07	2.54E-06	9.55E-06	1.21E-05	1.35E-05	8.41E-06	2.19E-05	-4.74E-05	-7.28E-06	-5.47E-05	-6.42E-05	-1.02E-05	-7.43E-05	6.02E-05	6.58E-05	0.000126051	-1.93E-05	7.83E-06	-1.15E-05	1.96E-05	1.71E-05	3.66E-05	1.62E-05	-1.32E-05	2.97E-06	9.97E-18	-1.75E-18	8.22E-18	-9.90E-06	-2.39E-05	-3.38E-05	3.07E-05	-1.71E-05	1.36E-05	4.55E-05	-6.16E-06	3.93E-05	2.84E-05	4.29E-06	3.27E-05	-4.26E-05	-1.22E-05	-5.48E-05	-4.21E-05	-1.44E-05	-5.65E-05	-5.72E-05	-2.34E-05	-8.06E-05	-3.89E-05	-2.93E-05	-6.82E-05	-7.19E-06	-6.95E-06	-1.41E-05	5.16E-05	2.44E-05	7.60E-05	8.99E-18	-2.29E-18	6.70E-18	6.64E-05	4.21E-06	7.06E-05	-2.80E-05	-3.98E-05	-6.79E-05	1.53E-05	-2.48E-05	-9.45E-06	3.67E-05	9.98E-06	4.67E-05	-3.41E-05	-2.79E-05	-6.20E-05	-6.86E-05	-1.75E-05	-8.62E-05	7.87E-05	0.000184684	0.00026335	-1.78E-05	8.81E-06	-8.96E-06	0
0.84	-2.73E-05	9.03E-06	-1.83E-05	1.53E-06	6.67E-06	8.20E-06	-3.35E-18	-1.39E-17	-1.73E-17	-6.68E-05	-9.43E-06	-7.62E-05	4.33E-05	1.67E-05	6.00E-05	2.47E-05	6.12E-06	3.08E-05	5.06E-07	-1.38E-06	-8.76E-07	-2.89E-05	-8.14E-06	-3.70E-05	-3.37E-05	-1.56E-05	-4.93E-05	-4.02E-05	-2.45E-05	-6.47E-05	-3.06E-05	-2.81E-05	-5.86E-05	-3.59E-05	5.80E-06	-3.01E-05	8.02E-06	3.11E-05	3.92E-05	-1.19E-17	-8.30E-18	-2.02E-17	9.42E-06	3.13E-05	4.07E-05	-9.56E-06	9.40E-06	-1.63E-07	2.29E-06	9.71E-06	1.20E-05	1.32E-05	8.44E-06	2.17E-05	-4.78E-05	-7.49E-06	-5.53E-05	-6.46E-05	-1.00E-05	-7.46E-05	6.10E-05	6.66E-05	0.000127588	-1.93E-05	7.98E-06	-1.13E-05	1.94E-05	1.78E-05	3.72E-05	1.68E-05	-1.29E-05	3.93E-06	9.80E-18	-1.79E-18	8.01E-18	-1.11E-05	-2.46E-05	-3.56E-05	3.23E-05	-1.70E-05	1.53E-05	4.70E-05	-5.89E-06	4.11E-05	2.95E-05	4.64E-06	3.41E-05	-4.42E-05	-1.28E-05	-5.69E-05	-4.37E-05	-1.51E-05	-5.88E-05	-5.92E-05	-2.43E-05	-8.35E-05	-4.07E-05	-3.05E-05	-7.13E-05	-6.42E-06	-6.07E-06	-1.25E-05	5.31E-05	2.58E-05	7.89E-05	8.91E-18	-2.26E-18	6.65E-18	7.00E-05	6.18E-06	7.62E-05	-2.82E-05	-4.00E-05	-6.82E-05	1.63E-05	-2.41E-05	-7.80E-06	3.76E-05	1.07E-05	4.83E-05	-3.56E-05	-2.84E-05	-6.41E-05	-7.17E-05	-1.84E-05	-9.01E-05	8.12E-05	0.000189327	0.000270532	-1.89E-05	8.89E-06	-1.00E-05	0
0.88	-2.78E-05	9.08E-06	-1.87E-05	2.42E-06	6.96E-06	9.38E-06	-3.27E-18	-1.30E-17	-1.63E-17	-6.76E-05	-9.71E-06	-7.73E-05	4.42E-05	1.69E-05	6.11E-05	2.50E-05	5.89E-06	3.09E-05	8.67E-07	-1.63E-06	-7.58E-07	-2.88E-05	-8.24E-06	-3.70E-05	-3.38E-05	-1.59E-05	-4.97E-05	-4.04E-05	-2.49E-05	-6.53E-05	-3.04E-05	-2.83E-05	-5.88E-05	-3.68E-05	5.72E-06	-3.11E-05	7.60E-06	3.15E-05	3.91E-05	-1.16E-17	-8.31E-18	-1.99E-17	8.91E-06	3.14E-05	4.03E-05	-9.53E-06	9.83E-06	2.96E-07	2.01E-06	9.91E-06	1.19E-05	1.30E-05	8.49E-06	2.15E-05	-4.82E-05	-7.69E-06	-5.59E-05	-6.50E-05	-9.97E-06	-7.50E-05	6.18E-05	6.74E-05	0.000129205	-1.93E-05	8.12E-06	-1.12E-05	1.93E-05	1.85E-05	3.78E-05	1.75E-05	-1.26E-05	4.91E-06	9.54E-18	-1.80E-18	7.74E-18	-1.22E-05	-2.53E-05	-3.75E-05	3.39E-05	-1.67E-05	1.72E-05	4.84E-05	-5.67E-06	4.27E-05	3.05E-05	4.94E-06	3.54E-05	-4.56E-05	-1.33E-05	-5.89E-05	-4.53E-05	-1.57E-05	-6.09E-05	-6.11E-05	-2.52E-05	-8.62E-05	-4.25E-05	-3.17E-05	-7.43E-05	-5.54E-06	-5.22E-06	-1.08E-05	5.45E-05	2.71E-05	8.16E-05	8.74E-18	-2.20E-18	6.54E-18	7.36E-05	8.00E-06	8.16E-05	-2.82E-05	-4.01E-05	-6.83E-05	1.73E-05	-2.35E-05	-6.26E-06	3.84E-05	1.13E-05	4.96E-05	-3.71E-05	-2.90E-05	-6.61E-05	-7.46E-05	-1.92E-05	-9.38E-05	8.36E-05	0.000193404	0.000277009	-2.00E-05	8.95E-06	-1.11E-05	0
0.92	-2.84E-05	9.16E-06	-1.92E-05	3.28E-06	7.29E-06	1.06E-05	-3.16E-18	-1.19E-17	-1.50E-17	-6.85E-05	-9.99E-06	-7.85E-05	4.50E-05	1.72E-05	6.22E-05	2.53E-05	5.70E-06	3.10E-05	1.22E-06	-1.85E-06	-6.30E-07	-2.87E-05	-8.37E-06	-3.71E-05	-3.39E-05	-1.62E-05	-5.02E-05	-4.07E-05	-2.53E-05	-6.60E-05	-3.04E-05	-2.86E-05	-5.90E-05	-3.77E-05	5.67E-06	-3.20E-05	7.23E-06	3.18E-05	3.91E-05	-1.11E-17	-8.23E-18	-1.93E-17	8.45E-06	3.15E-05	4.00E-05	-9.54E-06	1.03E-05	7.22E-07	1.70E-06	1.01E-05	1.18E-05	1.28E-05	8.58E-06	2.14E-05	-4.87E-05	-7.89E-06	-5.66E-05	-6.55E-05	-9.92E-06	-7.54E-05	6.26E-05	6.83E-05	0.000130906	-1.94E-05	8.27E-06	-1.11E-05	1.92E-05	1.92E-05	3.84E-05	1.83E-05	-1.24E-05	5.93E-06	9.17E-18	-1.79E-18	7.39E-18	-1.34E-05	-2.59E-05	-3.93E-05	3.57E-05	-1.65E-05	1.92E-05	4.97E-05	-5.47E-06	4.43E-05	3.14E-05	5.18E-06	3.65E-05	-4.69E-05	-1.37E-05	-6.06E-05	-4.67E-05	-1.63E-05	-6.29E-05	-6.28E-05	-2.60E-05	-8.88E-05	-4.42E-05	-3.29E-05	-7.71E-05	-4.56E-06	-4.40E-06	-8.96E-06	5.58E-05	2.82E-05	8.40E-05	8.47E-18	-2.12E-18	6.36E-18	7.69E-05	9.69E-06	8.66E-05	-2.80E-05	-4.02E-05	-6.82E-05	1.82E-05	-2.30E-05	-4.85E-06	3.90E-05	1.18E-05	5.08E-05	-3.86E-05	-2.95E-05	-6.81E-05	-7.73E-05	-2.00E-05	-9.73E-05	8.59E-05	0.000196904	0.000282765	-2.10E-05	8.99E-06	-1.21E-05	0
0.96	-2.89E-05	9.27E-06	-1.97E-05	4.09E-06	7.64E-06	1.17E-05	-3.01E-18	-1.06E-17	-1.36E-17	-6.94E-05	-1.03E-05	-7.97E-05	4.59E-05	1.74E-05	6.33E-05	2.56E-05	5.55E-06	3.11E-05	1.58E-06	-2.07E-06	-4.91E-07	-2.87E-05	-8.51E-06	-3.72E-05	-3.41E-05	-1.66E-05	-5.07E-05	-4.09E-05	-2.58E-05	-6.66E-05	-3.03E-05	-2.89E-05	-5.92E-05	-3.87E-05	5.65E-06	-3.30E-05	6.89E-06	3.23E-05	3.92E-05	-1.05E-17	-8.08E-18	-1.85E-17	8.04E-06	3.17E-05	3.98E-05	-9.60E-06	1.07E-05	1.11E-06	1.36E-06	1.04E-05	1.18E-05	1.27E-05	8.71E-06	2.14E-05	-4.93E-05	-8.10E-06	-5.74E-05	-6.61E-05	-9.90E-06	-7.60E-05	6.35E-05	6.92E-05	0.000132695	-1.94E-05	8.41E-06	-1.10E-05	1.91E-05	1.98E-05	3.89E-05	1.91E-05	-1.21E-05	6.98E-06	8.71E-18	-1.75E-18	6.96E-18	-1.45E-05	-2.66E-05	-4.11E-05	3.75E-05	-1.62E-05	2.13E-05	5.10E-05	-5.32E-06	4.57E-05	3.22E-05	5.36E-06	3.75E-05	-4.81E-05	-1.42E-05	-6.23E-05	-4.79E-05	-1.68E-05	-6.47E-05	-6.45E-05	-2.68E-05	-9.13E-05	-4.58E-05	-3.39E-05	-7.98E-05	-3.47E-06	-3.63E-06	-7.10E-06	5.70E-05	2.92E-05	8.62E-05	8.11E-18	-2.00E-18	6.11E-18	8.00E-05	1.12E-05	9.12E-05	-2.77E-05	-4.02E-05	-6.79E-05	1.90E-05	-2.26E-05	-3.56E-06	3.95E-05	1.22E-05	5.17E-05	-3.99E-05	-3.00E-05	-7.00E-05	-7.99E-05	-2.07E-05	-0.00010064	8.80E-05	0.000199823	0.000287792	-2.20E-05	9.01E-06	-1.30E-05	0
1	-2.95E-05	9.40E-06	-2.01E-05	4.87E-06	8.03E-06	1.29E-05	-2.83E-18	-9.27E-18	-1.21E-17	-7.05E-05	-1.05E-05	-8.10E-05	4.67E-05	1.77E-05	6.44E-05	2.58E-05	5.45E-06	3.13E-05	1.93E-06	-2.27E-06	-3.40E-07	-2.86E-05	-8.68E-06	-3.73E-05	-3.43E-05	-1.69E-05	-5.12E-05	-4.11E-05	-2.62E-05	-6.73E-05	-3.03E-05	-2.92E-05	-5.95E-05	-3.97E-05	5.67E-06	-3.40E-05	6.58E-06	3.29E-05	3.94E-05	-9.69E-18	-7.85E-18	-1.75E-17	7.68E-06	3.21E-05	3.97E-05	-9.71E-06	1.12E-05	1.47E-06	9.85E-07	1.07E-05	1.17E-05	1.26E-05	8.87E-06	2.14E-05	-4.99E-05	-8.30E-06	-5.82E-05	-6.67E-05	-9.93E-06	-7.67E-05	6.43E-05	7.02E-05	0.00013457	-1.95E-05	8.56E-06	-1.09E-05	1.91E-05	2.03E-05	3.94E-05	1.99E-05	-1.19E-05	8.06E-06	8.15E-18	-1.68E-18	6.47E-18	-1.56E-05	-2.72E-05	-4.28E-05	3.94E-05	-1.58E-05	2.36E-05	5.22E-05	-5.21E-06	4.70E-05	3.28E-05	5.48E-06	3.83E-05	-4.92E-05	-1.46E-05	-6.37E-05	-4.91E-05	-1.73E-05	-6.64E-05	-6.61E-05	-2.76E-05	-9.36E-05	-4.74E-05	-3.49E-05	-8.23E-05	-2.28E-06	-2.91E-06	-5.19E-06	5.81E-05	3.00E-05	8.82E-05	7.67E-18	-1.87E-18	5.80E-18	8.29E-05	1.26E-05	9.55E-05	-2.72E-05	-4.01E-05	-6.73E-05	1.98E-05	-2.22E-05	-2.41E-06	3.99E-05	1.25E-05	5.24E-05	-4.12E-05	-3.05E-05	-7.18E-05	-8.23E-05	-2.14E-05	-0.00010372	8.99E-05	0.000202163	0.000292087	-2.30E-05	9.02E-06	-1.39E-05	0
1.04	-3.01E-05	9.57E-06	-2.06E-05	5.61E-06	8.44E-06	1.41E-05	-2.62E-18	-7.79E-18	-1.04E-17	-7.16E-05	-1.08E-05	-8.24E-05	4.76E-05	1.80E-05	6.56E-05	2.61E-05	5.39E-06	3.15E-05	2.27E-06	-2.45E-06	-1.74E-07	-2.87E-05	-8.87E-06	-3.75E-05	-3.45E-05	-1.72E-05	-5.17E-05	-4.13E-05	-2.67E-05	-6.80E-05	-3.03E-05	-2.96E-05	-5.99E-05	-4.07E-05	5.73E-06	-3.50E-05	6.32E-06	3.35E-05	3.98E-05	-8.79E-18	-7.55E-18	-1.63E-17	7.37E-06	3.25E-05	3.99E-05	-9.86E-06	1.17E-05	1.79E-06	5.77E-07	1.11E-05	1.17E-05	1.25E-05	9.07E-06	2.16E-05	-5.06E-05	-8.50E-06	-5.91E-05	-6.74E-05	-9.98E-06	-7.74E-05	6.52E-05	7.13E-05	0.000136533	-1.95E-05	8.71E-06	-1.08E-05	1.91E-05	2.09E-05	3.99E-05	2.08E-05	-1.16E-05	9.16E-06	7.51E-18	-1.59E-18	5.92E-18	-1.67E-05	-2.78E-05	-4.45E-05	4.14E-05	-1.55E-05	2.59E-05	5.33E-05	-5.15E-06	4.82E-05	3.34E-05	5.54E-06	3.89E-05	-5.01E-05	-1.49E-05	-6.51E-05	-5.01E-05	-1.77E-05	-6.78E-05	-6.75E-05	-2.83E-05	-9.58E-05	-4.88E-05	-3.58E-05	-8.46E-05	-1.00E-06	-2.23E-06	-3.23E-06	5.91E-05	3.07E-05	8.99E-05	7.13E-18	-1.71E-18	5.43E-18	8.56E-05	1.38E-05	9.94E-05	-2.66E-05	-4.00E-05	-6.66E-05	2.05E-05	-2.19E-05	-1.40E-06	4.01E-05	1.28E-05	5.28E-05	-4.25E-05	-3.10E-05	-7.35E-05	-8.46E-05	-2.20E-05	-0.00010657	9.17E-05	0.000203929	0.000295654	-2.38E-05	9.01E-06	-1.48E-05	0
1.08	-3.08E-05	9.76E-06	-2.10E-05	6.30E-06	8.89E-06	1.52E-05	-2.37E-18	-6.21E-18	-8.59E-18	-7.27E-05	-1.11E-05	-8.38E-05	4.84E-05	1.84E-05	6.68E-05	2.64E-05	5.37E-06	3.17E-05	2.62E-06	-2.61E-06	7.55E-09	-2.87E-05	-9.07E-06	-3.78E-05	-3.48E-05	-1.75E-05	-5.23E-05	-4.15E-05	-2.72E-05	-6.88E-05	-3.04E-05	-3.00E-05	-6.04E-05	-4.18E-05	5.83E-06	-3.60E-05	6.10E-06	3.42E-05	4.03E-05	-7.76E-18	-7.18E-18	-1.49E-17	7.11E-06	3.30E-05	4.01E-05	-1.01E-05	1.21E-05	2.07E-06	1.37E-07	1.15E-05	1.16E-05	1.25E-05	9.30E-06	2.18E-05	-5.14E-05	-8.70E-06	-6.01E-05	-6.82E-05	-1.01E-05	-7.82E-05	6.61E-05	7.25E-05	0.000138579	-1.96E-05	8.85E-06	-1.08E-05	1.91E-05	2.14E-05	4.04E-05	2.17E-05	-1.14E-05	1.03E-05	6.78E-18	-1.48E-18	5.30E-18	-1.78E-05	-2.85E-05	-4.62E-05	4.34E-05	-1.50E-05	2.84E-05	5.44E-05	-5.12E-06	4.93E-05	3.39E-05	5.54E-06	3.94E-05	-5.10E-05	-1.52E-05	-6.62E-05	-5.09E-05	-1.81E-05	-6.90E-05	-6.89E-05	-2.90E-05	-9.79E-05	-5.02E-05	-3.66E-05	-8.68E-05	3.70E-07	-1.62E-06	-1.24E-06	6.01E-05	3.12E-05	9.13E-05	6.52E-18	-1.52E-18	5.00E-18	8.81E-05	1.48E-05	0.000102914	-2.58E-05	-3.98E-05	-6.56E-05	2.12E-05	-2.17E-05	-5.26E-07	4.02E-05	1.29E-05	5.31E-05	-4.36E-05	-3.15E-05	-7.51E-05	-8.66E-05	-2.26E-05	-0.000109186	9.34E-05	0.000205135	0.000298507	-2.46E-05	8.98E-06	-1.56E-05	0
1.12	-3.15E-05	9.99E-06	-2.15E-05	6.94E-06	9.37E-06	1.63E-05	-2.10E-18	-4.56E-18	-6.66E-18	-7.40E-05	-1.14E-05	-8.53E-05	4.92E-05	1.88E-05	6.80E-05	2.66E-05	5.41E-06	3.20E-05	2.96E-06	-2.75E-06	2.07E-07	-2.87E-05	-9.30E-06	-3.80E-05	-3.51E-05	-1.78E-05	-5.29E-05	-4.18E-05	-2.77E-05	-6.95E-05	-3.05E-05	-3.04E-05	-6.09E-05	-4.30E-05	5.97E-06	-3.70E-05	5.91E-06	3.50E-05	4.09E-05	-6.63E-18	-6.74E-18	-1.34E-17	6.90E-06	3.36E-05	4.05E-05	-1.03E-05	1.26E-05	2.33E-06	-3.36E-07	1.19E-05	1.16E-05	1.25E-05	9.57E-06	2.21E-05	-5.22E-05	-8.89E-06	-6.11E-05	-6.90E-05	-1.02E-05	-7.92E-05	6.70E-05	7.37E-05	0.000140706	-1.97E-05	9.00E-06	-1.07E-05	1.91E-05	2.18E-05	4.09E-05	2.26E-05	-1.12E-05	1.14E-05	5.98E-18	-1.34E-18	4.63E-18	-1.88E-05	-2.91E-05	-4.79E-05	4.56E-05	-1.46E-05	3.10E-05	5.53E-05	-5.14E-06	5.02E-05	3.42E-05	5.48E-06	3.97E-05	-5.17E-05	-1.55E-05	-6.72E-05	-5.16E-05	-1.85E-05	-7.01E-05	-7.01E-05	-2.96E-05	-9.97E-05	-5.14E-05	-3.74E-05	-8.88E-05	1.82E-06	-1.06E-06	7.66E-07	6.09E-05	3.16E-05	9.24E-05	5.84E-18	-1.32E-18	4.52E-18	9.04E-05	1.57E-05	0.000106048	-2.49E-05	-3.96E-05	-6.45E-05	2.18E-05	-2.16E-05	2.06E-07	4.02E-05	1.29E-05	5.31E-05	-4.47E-05	-3.20E-05	-7.67E-05	-8.85E-05	-2.31E-05	-0.000111568	9.49E-05	0.000205798	0.000300664	-2.54E-05	8.95E-06	-1.64E-05	0
1.16	-3.22E-05	1.02E-05	-2.19E-05	7.53E-06	9.88E-06	1.74E-05	-1.81E-18	-2.84E-18	-4.65E-18	-7.53E-05	-1.16E-05	-8.69E-05	5.00E-05	1.92E-05	6.92E-05	2.69E-05	5.49E-06	3.24E-05	3.31E-06	-2.88E-06	4.26E-07	-2.88E-05	-9.55E-06	-3.84E-05	-3.54E-05	-1.81E-05	-5.35E-05	-4.20E-05	-2.83E-05	-7.03E-05	-3.06E-05	-3.08E-05	-6.14E-05	-4.41E-05	6.16E-06	-3.80E-05	5.76E-06	3.58E-05	4.16E-05	-5.40E-18	-6.24E-18	-1.16E-17	6.74E-06	3.44E-05	4.11E-05	-1.06E-05	1.31E-05	2.55E-06	-8.40E-07	1.24E-05	1.15E-05	1.25E-05	9.88E-06	2.24E-05	-5.32E-05	-9.08E-06	-6.22E-05	-6.98E-05	-1.04E-05	-8.02E-05	6.79E-05	7.50E-05	0.000142908	-1.99E-05	9.15E-06	-1.07E-05	1.91E-05	2.22E-05	4.13E-05	2.36E-05	-1.10E-05	1.26E-05	5.11E-18	-1.19E-18	3.92E-18	-1.99E-05	-2.97E-05	-4.95E-05	4.77E-05	-1.42E-05	3.36E-05	5.62E-05	-5.20E-06	5.10E-05	3.45E-05	5.37E-06	3.99E-05	-5.23E-05	-1.58E-05	-6.81E-05	-5.22E-05	-1.88E-05	-7.10E-05	-7.13E-05	-3.02E-05	-0.000101472	-5.26E-05	-3.80E-05	-9.06E-05	3.35E-06	-5.61E-07	2.79E-06	6.16E-05	3.18E-05	9.34E-05	5.10E-18	-1.10E-18	4.00E-18	9.24E-05	1.64E-05	0.000108798	-2.39E-05	-3.93E-05	-6.32E-05	2.23E-05	-2.15E-05	7.98E-07	4.00E-05	1.29E-05	5.29E-05	-4.57E-05	-3.24E-05	-7.82E-05	-9.02E-05	-2.36E-05	-0.000113716	9.62E-05	0.000205941	0.000302149	-2.60E-05	8.89E-06	-1.72E-05	0
1.2	-3.29E-05	1.05E-05	-2.24E-05	8.08E-06	1.04E-05	1.85E-05	-1.49E-18	-1.10E-18	-2.58E-18	-7.66E-05	-1.19E-05	-8.85E-05	5.08E-05	1.96E-05	7.05E-05	2.71E-05	5.61E-06	3.28E-05	3.66E-06	-2.99E-06	6.67E-07	-2.89E-05	-9.82E-06	-3.87E-05	-3.57E-05	-1.84E-05	-5.41E-05	-4.22E-05	-2.88E-05	-7.10E-05	-3.08E-05	-3.13E-05	-6.20E-05	-4.53E-05	6.39E-06	-3.89E-05	5.65E-06	3.68E-05	4.24E-05	-4.09E-18	-5.69E-18	-9.77E-18	6.63E-06	3.52E-05	4.18E-05	-1.09E-05	1.37E-05	2.73E-06	-1.37E-06	1.29E-05	1.15E-05	1.27E-05	1.02E-05	2.29E-05	-5.42E-05	-9.26E-06	-6.34E-05	-7.08E-05	-1.06E-05	-8.13E-05	6.89E-05	7.63E-05	0.000145179	-2.00E-05	9.30E-06	-1.07E-05	1.92E-05	2.26E-05	4.18E-05	2.46E-05	-1.09E-05	1.38E-05	4.18E-18	-1.02E-18	3.17E-18	-2.09E-05	-3.02E-05	-5.11E-05	4.99E-05	-1.37E-05	3.63E-05	5.71E-05	-5.30E-06	5.18E-05	3.47E-05	5.20E-06	3.99E-05	-5.28E-05	-1.60E-05	-6.88E-05	-5.27E-05	-1.90E-05	-7.17E-05	-7.23E-05	-3.07E-05	-0.000103057	-5.36E-05	-3.86E-05	-9.23E-05	4.94E-06	-1.28E-07	4.81E-06	6.22E-05	3.19E-05	9.41E-05	4.29E-18	-8.61E-19	3.43E-18	9.43E-05	1.69E-05	0.000111171	-2.27E-05	-3.90E-05	-6.17E-05	2.28E-05	-2.16E-05	1.25E-06	3.98E-05	1.27E-05	5.25E-05	-4.67E-05	-3.29E-05	-7.96E-05	-9.17E-05	-2.40E-05	-0.000115634	9.74E-05	0.000205593	0.000302995	-2.67E-05	8.83E-06	-1.78E-05	0
1.24	-3.36E-05	1.08E-05	-2.28E-05	8.58E-06	1.10E-05	1.96E-05	-1.15E-18	6.64E-19	-4.82E-19	-7.81E-05	-1.21E-05	-9.02E-05	5.17E-05	2.01E-05	7.17E-05	2.74E-05	5.78E-06	3.32E-05	4.02E-06	-3.09E-06	9.32E-07	-2.90E-05	-1.01E-05	-3.91E-05	-3.61E-05	-1.87E-05	-5.48E-05	-4.24E-05	-2.94E-05	-7.18E-05	-3.10E-05	-3.17E-05	-6.27E-05	-4.66E-05	6.65E-06	-3.99E-05	5.58E-06	3.78E-05	4.34E-05	-2.71E-18	-5.08E-18	-7.79E-18	6.55E-06	3.61E-05	4.27E-05	-1.13E-05	1.42E-05	2.89E-06	-1.94E-06	1.34E-05	1.15E-05	1.28E-05	1.06E-05	2.34E-05	-5.52E-05	-9.44E-06	-6.46E-05	-7.17E-05	-1.08E-05	-8.25E-05	6.98E-05	7.77E-05	0.00014751	-2.01E-05	9.46E-06	-1.07E-05	1.93E-05	2.29E-05	4.22E-05	2.57E-05	-1.07E-05	1.49E-05	3.21E-18	-8.31E-19	2.38E-18	-2.19E-05	-3.08E-05	-5.27E-05	5.22E-05	-1.32E-05	3.90E-05	5.78E-05	-5.44E-06	5.24E-05	3.48E-05	4.98E-06	3.98E-05	-5.32E-05	-1.62E-05	-6.94E-05	-5.30E-05	-1.93E-05	-7.23E-05	-7.33E-05	-3.12E-05	-0.000104496	-5.46E-05	-3.91E-05	-9.37E-05	6.58E-06	2.40E-07	6.82E-06	6.27E-05	3.18E-05	9.45E-05	3.44E-18	-6.10E-19	2.84E-18	9.59E-05	1.72E-05	0.000113176	-2.14E-05	-3.87E-05	-6.01E-05	2.33E-05	-2.17E-05	1.58E-06	3.94E-05	1.25E-05	5.19E-05	-4.76E-05	-3.33E-05	-8.09E-05	-9.30E-05	-2.43E-05	-0.000117328	9.85E-05	0.000204786	0.000303238	-2.72E-05	8.76E-06	-1.84E-05	0
1.28	-3.44E-05	1.12E-05	-2.32E-05	9.04E-06	1.16E-05	2.06E-05	-7.86E-19	2.41E-18	1.63E-18	-7.96E-05	-1.24E-05	-9.20E-05	5.24E-05	2.05E-05	7.30E-05	2.76E-05	5.98E-06	3.36E-05	4.39E-06	-3.17E-06	1.22E-06	-2.92E-05	-1.04E-05	-3.96E-05	-3.65E-05	-1.90E-05	-5.55E-05	-4.26E-05	-3.00E-05	-7.26E-05	-3.12E-05	-3.22E-05	-6.34E-05	-4.78E-05	6.96E-06	-4.08E-05	5.54E-06	3.89E-05	4.44E-05	-1.29E-18	-4.44E-18	-5.73E-18	6.52E-06	3.71E-05	4.36E-05	-1.17E-05	1.47E-05	3.02E-06	-2.52E-06	1.40E-05	1.15E-05	1.30E-05	1.10E-05	2.40E-05	-5.63E-05	-9.60E-06	-6.59E-05	-7.27E-05	-1.10E-05	-8.37E-05	7.08E-05	7.91E-05	0.000149892	-2.03E-05	9.61E-06	-1.07E-05	1.94E-05	2.32E-05	4.25E-05	2.67E-05	-1.06E-05	1.61E-05	2.21E-18	-6.33E-19	1.57E-18	-2.28E-05	-3.14E-05	-5.42E-05	5.45E-05	-1.27E-05	4.18E-05	5.85E-05	-5.61E-06	5.29E-05	3.48E-05	4.72E-06	3.95E-05	-5.35E-05	-1.63E-05	-6.98E-05	-5.32E-05	-1.94E-05	-7.27E-05	-7.41E-05	-3.17E-05	-0.000105792	-5.55E-05	-3.96E-05	-9.51E-05	8.27E-06	5.43E-07	8.81E-06	6.31E-05	3.16E-05	9.48E-05	2.56E-18	-3.48E-19	2.21E-18	9.74E-05	1.75E-05	0.000114825	-2.01E-05	-3.84E-05	-5.85E-05	2.36E-05	-2.19E-05	1.78E-06	3.89E-05	1.21E-05	5.11E-05	-4.84E-05	-3.38E-05	-8.21E-05	-9.42E-05	-2.46E-05	-0.000118804	9.94E-05	0.000203557	0.000302922	-2.77E-05	8.67E-06	-1.90E-05	0
1.32	-3.52E-05	1.15E-05	-2.36E-05	9.45E-06	1.22E-05	2.16E-05	-4.11E-19	4.13E-18	3.72E-18	-8.12E-05	-1.26E-05	-9.38E-05	5.32E-05	2.10E-05	7.43E-05	2.79E-05	6.23E-06	3.41E-05	4.77E-06	-3.23E-06	1.54E-06	-2.93E-05	-1.07E-05	-4.00E-05	-3.68E-05	-1.93E-05	-5.61E-05	-4.27E-05	-3.06E-05	-7.34E-05	-3.14E-05	-3.27E-05	-6.41E-05	-4.91E-05	7.31E-06	-4.18E-05	5.53E-06	4.00E-05	4.55E-05	1.70E-19	-3.77E-18	-3.60E-18	6.53E-06	3.82E-05	4.47E-05	-1.21E-05	1.53E-05	3.12E-06	-3.14E-06	1.46E-05	1.15E-05	1.33E-05	1.15E-05	2.47E-05	-5.74E-05	-9.77E-06	-6.72E-05	-7.37E-05	-1.13E-05	-8.50E-05	7.17E-05	8.06E-05	0.000152316	-2.04E-05	9.77E-06	-1.07E-05	1.95E-05	2.34E-05	4.29E-05	2.78E-05	-1.05E-05	1.73E-05	1.18E-18	-4.27E-19	7.49E-19	-2.37E-05	-3.19E-05	-5.57E-05	5.68E-05	-1.22E-05	4.46E-05	5.91E-05	-5.82E-06	5.33E-05	3.47E-05	4.41E-06	3.91E-05	-5.37E-05	-1.65E-05	-7.01E-05	-5.33E-05	-1.96E-05	-7.29E-05	-7.49E-05	-3.21E-05	-0.000106948	-5.63E-05	-4.00E-05	-9.62E-05	9.98E-06	7.81E-07	1.08E-05	6.35E-05	3.13E-05	9.48E-05	1.65E-18	-7.90E-20	1.57E-18	9.86E-05	1.75E-05	0.000116136	-1.87E-05	-3.80E-05	-5.67E-05	2.40E-05	-2.21E-05	1.86E-06	3.84E-05	1.17E-05	5.01E-05	-4.91E-05	-3.42E-05	-8.33E-05	-9.52E-05	-2.49E-05	-0.000120071	0.000100147	0.000201947	0.000302093	-2.81E-05	8.58E-06	-1.95E-05	0
1.36	-3.59E-05	1.19E-05	-2.40E-05	9.82E-06	1.28E-05	2.26E-05	-2.39E-20	5.79E-18	5.76E-18	-8.28E-05	-1.29E-05	-9.57E-05	5.40E-05	2.15E-05	7.56E-05	2.82E-05	6.50E-06	3.47E-05	5.17E-06	-3.28E-06	1.89E-06	-2.94E-05	-1.10E-05	-4.05E-05	-3.72E-05	-1.96E-05	-5.68E-05	-4.29E-05	-3.12E-05	-7.41E-05	-3.17E-05	-3.32E-05	-6.49E-05	-5.04E-05	7.69E-06	-4.27E-05	5.55E-06	4.12E-05	4.67E-05	1.64E-18	-3.06E-18	-1.43E-18	6.56E-06	3.94E-05	4.59E-05	-1.26E-05	1.58E-05	3.20E-06	-3.77E-06	1.53E-05	1.15E-05	1.36E-05	1.19E-05	2.55E-05	-5.86E-05	-9.92E-06	-6.85E-05	-7.48E-05	-1.16E-05	-8.64E-05	7.27E-05	8.20E-05	0.00015477	-2.06E-05	9.93E-06	-1.06E-05	1.96E-05	2.36E-05	4.33E-05	2.89E-05	-1.03E-05	1.85E-05	1.35E-19	-2.15E-19	-8.01E-20	-2.46E-05	-3.25E-05	-5.71E-05	5.91E-05	-1.16E-05	4.74E-05	5.96E-05	-6.06E-06	5.36E-05	3.46E-05	4.07E-06	3.87E-05	-5.38E-05	-1.66E-05	-7.03E-05	-5.33E-05	-1.97E-05	-7.30E-05	-7.55E-05	-3.25E-05	-0.000107971	-5.70E-05	-4.03E-05	-9.72E-05	1.17E-05	9.57E-07	1.27E-05	6.38E-05	3.09E-05	9.47E-05	7.18E-19	1.95E-19	9.13E-19	9.97E-05	1.75E-05	0.000117127	-1.72E-05	-3.76E-05	-5.48E-05	2.43E-05	-2.24E-05	1.83E-06	3.78E-05	1.13E-05	4.90E-05	-4.98E-05	-3.46E-05	-8.44E-05	-9.60E-05	-2.51E-05	-0.00012114	0.000100805	0.000199998	0.000300804	-2.84E-05	8.48E-06	-1.99E-05	0
1.4	-3.67E-05	1.23E-05	-2.45E-05	1.01E-05	1.34E-05	2.36E-05	3.71E-19	7.36E-18	7.74E-18	-8.44E-05	-1.31E-05	-9.76E-05	5.48E-05	2.21E-05	7.68E-05	2.84E-05	6.81E-06	3.52E-05	5.59E-06	-3.32E-06	2.27E-06	-2.95E-05	-1.14E-05	-4.09E-05	-3.76E-05	-1.99E-05	-5.74E-05	-4.30E-05	-3.18E-05	-7.49E-05	-3.19E-05	-3.38E-05	-6.57E-05	-5.17E-05	8.11E-06	-4.35E-05	5.60E-06	4.24E-05	4.80E-05	3.10E-18	-2.35E-18	7.50E-19	6.63E-06	4.06E-05	4.72E-05	-1.31E-05	1.63E-05	3.26E-06	-4.42E-06	1.59E-05	1.15E-05	1.39E-05	1.24E-05	2.64E-05	-5.98E-05	-1.01E-05	-6.99E-05	-7.59E-05	-1.19E-05	-8.77E-05	7.37E-05	8.35E-05	0.000157242	-2.07E-05	1.01E-05	-1.06E-05	1.98E-05	2.38E-05	4.36E-05	3.00E-05	-1.02E-05	1.97E-05	-9.06E-19	-1.02E-23	-9.06E-19	-2.55E-05	-3.30E-05	-5.85E-05	6.14E-05	-1.11E-05	5.03E-05	6.01E-05	-6.33E-06	5.38E-05	3.44E-05	3.69E-06	3.81E-05	-5.38E-05	-1.66E-05	-7.04E-05	-5.32E-05	-1.98E-05	-7.30E-05	-7.61E-05	-3.28E-05	-0.000108865	-5.76E-05	-4.05E-05	-9.81E-05	1.34E-05	1.07E-06	1.45E-05	6.40E-05	3.04E-05	9.44E-05	-2.16E-19	4.70E-19	2.54E-19	0.00010056	1.73E-05	0.000117821	-1.57E-05	-3.72E-05	-5.29E-05	2.45E-05	-2.28E-05	1.70E-06	3.71E-05	1.07E-05	4.78E-05	-5.04E-05	-3.50E-05	-8.54E-05	-9.67E-05	-2.53E-05	-0.000122022	0.00010135	0.000197758	0.000299108	-2.87E-05	8.38E-06	-2.03E-05	0
1.44	-3.75E-05	1.27E-05	-2.49E-05	1.04E-05	1.41E-05	2.45E-05	7.71E-19	8.84E-18	9.61E-18	-8.61E-05	-1.34E-05	-9.95E-05	5.55E-05	2.26E-05	7.81E-05	2.87E-05	7.14E-06	3.58E-05	6.03E-06	-3.36E-06	2.68E-06	-2.96E-05	-1.17E-05	-4.14E-05	-3.79E-05	-2.01E-05	-5.81E-05	-4.31E-05	-3.25E-05	-7.56E-05	-3.21E-05	-3.43E-05	-6.65E-05	-5.30E-05	8.56E-06	-4.44E-05	5.67E-06	4.36E-05	4.93E-05	4.53E-18	-1.62E-18	2.91E-18	6.71E-06	4.19E-05	4.86E-05	-1.36E-05	1.69E-05	3.30E-06	-5.09E-06	1.66E-05	1.15E-05	1.44E-05	1.29E-05	2.73E-05	-6.10E-05	-1.02E-05	-7.12E-05	-7.69E-05	-1.22E-05	-8.91E-05	7.47E-05	8.50E-05	0.000159722	-2.09E-05	1.03E-05	-1.06E-05	1.99E-05	2.39E-05	4.39E-05	3.11E-05	-1.02E-05	2.10E-05	-1.93E-18	2.15E-19	-1.72E-18	-2.64E-05	-3.35E-05	-5.99E-05	6.37E-05	-1.06E-05	5.31E-05	6.06E-05	-6.62E-06	5.39E-05	3.42E-05	3.29E-06	3.75E-05	-5.38E-05	-1.67E-05	-7.04E-05	-5.31E-05	-1.98E-05	-7.29E-05	-7.65E-05	-3.31E-05	-0.000109637	-5.81E-05	-4.07E-05	-9.88E-05	1.52E-05	1.12E-06	1.63E-05	6.42E-05	2.98E-05	9.40E-05	-1.14E-18	7.44E-19	-4.00E-19	0.00010128	1.70E-05	0.000118241	-1.42E-05	-3.69E-05	-5.10E-05	2.47E-05	-2.32E-05	1.49E-06	3.63E-05	1.01E-05	4.64E-05	-5.10E-05	-3.54E-05	-8.64E-05	-9.72E-05	-2.55E-05	-0.000122732	0.000101789	0.000195274	0.000297063	-2.89E-05	8.28E-06	-2.07E-05	0
1.48	-3.83E-05	1.31E-05	-2.52E-05	1.07E-05	1.47E-05	2.54E-05	1.17E-18	1.02E-17	1.14E-17	-8.79E-05	-1.36E-05	-0.000101452	5.62E-05	2.31E-05	7.93E-05	2.89E-05	7.49E-06	3.64E-05	6.50E-06	-3.38E-06	3.12E-06	-2.97E-05	-1.21E-05	-4.18E-05	-3.82E-05	-2.04E-05	-5.87E-05	-4.32E-05	-3.31E-05	-7.63E-05	-3.24E-05	-3.49E-05	-6.72E-05	-5.43E-05	9.04E-06	-4.52E-05	5.77E-06	4.49E-05	5.07E-05	5.92E-18	-8.96E-19	5.03E-18	6.82E-06	4.32E-05	5.00E-05	-1.41E-05	1.74E-05	3.32E-06	-5.78E-06	1.73E-05	1.15E-05	1.48E-05	1.35E-05	2.83E-05	-6.23E-05	-1.03E-05	-7.26E-05	-7.80E-05	-1.26E-05	-9.05E-05	7.57E-05	8.65E-05	0.000162194	-2.10E-05	1.04E-05	-1.06E-05	2.01E-05	2.40E-05	4.41E-05	3.23E-05	-1.01E-05	2.22E-05	-2.94E-18	4.26E-19	-2.51E-18	-2.72E-05	-3.40E-05	-6.12E-05	6.59E-05	-1.01E-05	5.58E-05	6.10E-05	-6.93E-06	5.40E-05	3.40E-05	2.87E-06	3.69E-05	-5.36E-05	-1.67E-05	-7.04E-05	-5.28E-05	-1.99E-05	-7.27E-05	-7.69E-05	-3.33E-05	-0.000110295	-5.85E-05	-4.09E-05	-9.94E-05	1.69E-05	1.12E-06	1.80E-05	6.43E-05	2.92E-05	9.35E-05	-2.06E-18	1.01E-18	-1.04E-18	0.000101848	1.66E-05	0.000118413	-1.26E-05	-3.65E-05	-4.91E-05	2.49E-05	-2.37E-05	1.20E-06	3.55E-05	9.50E-06	4.50E-05	-5.15E-05	-3.58E-05	-8.73E-05	-9.77E-05	-2.56E-05	-0.000123282	0.000102133	0.000192597	0.00029473	-2.91E-05	8.17E-06	-2.09E-05	0
1.52	-3.92E-05	1.35E-05	-2.56E-05	1.09E-05	1.54E-05	2.63E-05	1.57E-18	1.14E-17	1.30E-17	-8.96E-05	-1.38E-05	-0.000103427	5.70E-05	2.36E-05	8.06E-05	2.92E-05	7.86E-06	3.70E-05	7.01E-06	-3.40E-06	3.60E-06	-2.98E-05	-1.24E-05	-4.22E-05	-3.85E-05	-2.07E-05	-5.92E-05	-4.32E-05	-3.37E-05	-7.69E-05	-3.26E-05	-3.54E-05	-6.80E-05	-5.56E-05	9.54E-06	-4.60E-05	5.88E-06	4.62E-05	5.21E-05	7.25E-18	-1.80E-19	7.07E-18	6.94E-06	4.46E-05	5.15E-05	-1.46E-05	1.80E-05	3.34E-06	-6.47E-06	1.80E-05	1.15E-05	1.53E-05	1.40E-05	2.93E-05	-6.35E-05	-1.05E-05	-7.39E-05	-7.90E-05	-1.29E-05	-9.19E-05	7.66E-05	8.80E-05	0.000164648	-2.11E-05	1.06E-05	-1.05E-05	2.03E-05	2.41E-05	4.44E-05	3.34E-05	-1.00E-05	2.34E-05	-3.91E-18	6.31E-19	-3.28E-18	-2.80E-05	-3.45E-05	-6.25E-05	6.82E-05	-9.63E-06	5.85E-05	6.13E-05	-7.26E-06	5.41E-05	3.37E-05	2.43E-06	3.62E-05	-5.35E-05	-1.67E-05	-7.02E-05	-5.25E-05	-1.99E-05	-7.24E-05	-7.73E-05	-3.36E-05	-0.000110845	-5.89E-05	-4.10E-05	-9.99E-05	1.85E-05	1.07E-06	1.96E-05	6.44E-05	2.85E-05	9.28E-05	-2.94E-18	1.27E-18	-1.66E-18	0.000102277	1.61E-05	0.000118366	-1.11E-05	-3.61E-05	-4.72E-05	2.50E-05	-2.41E-05	8.54E-07	3.47E-05	8.82E-06	4.35E-05	-5.19E-05	-3.62E-05	-8.81E-05	-9.80E-05	-2.57E-05	-0.000123688	0.000102392	0.000189777	0.000292169	-2.92E-05	8.06E-06	-2.11E-05	0
1.56	-4.00E-05	1.40E-05	-2.60E-05	1.12E-05	1.60E-05	2.72E-05	1.96E-18	1.24E-17	1.44E-17	-9.14E-05	-1.40E-05	-0.00010541	5.77E-05	2.41E-05	8.18E-05	2.94E-05	8.23E-06	3.77E-05	7.54E-06	-3.42E-06	4.12E-06	-2.98E-05	-1.28E-05	-4.26E-05	-3.88E-05	-2.10E-05	-5.97E-05	-4.32E-05	-3.43E-05	-7.75E-05	-3.28E-05	-3.60E-05	-6.87E-05	-5.68E-05	1.01E-05	-4.68E-05	6.00E-06	4.75E-05	5.35E-05	8.50E-18	5.18E-19	9.02E-18	7.07E-06	4.60E-05	5.30E-05	-1.51E-05	1.85E-05	3.34E-06	-7.17E-06	1.87E-05	1.15E-05	1.58E-05	1.46E-05	3.04E-05	-6.47E-05	-1.06E-05	-7.53E-05	-8.00E-05	-1.32E-05	-9.32E-05	7.76E-05	8.95E-05	0.000167069	-2.12E-05	1.07E-05	-1.05E-05	2.04E-05	2.42E-05	4.46E-05	3.45E-05	-9.96E-06	2.46E-05	-4.83E-18	8.27E-19	-4.00E-18	-2.88E-05	-3.50E-05	-6.38E-05	7.03E-05	-9.16E-06	6.12E-05	6.16E-05	-7.60E-06	5.40E-05	3.35E-05	1.98E-06	3.54E-05	-5.33E-05	-1.67E-05	-7.00E-05	-5.21E-05	-1.99E-05	-7.20E-05	-7.75E-05	-3.38E-05	-0.000111296	-5.92E-05	-4.10E-05	-0.000100234	2.01E-05	9.65E-07	2.11E-05	6.44E-05	2.77E-05	9.21E-05	-3.78E-18	1.53E-18	-2.26E-18	0.00010258	1.55E-05	0.000118128	-9.61E-06	-3.58E-05	-4.54E-05	2.51E-05	-2.46E-05	4.57E-07	3.38E-05	8.12E-06	4.19E-05	-5.24E-05	-3.65E-05	-8.89E-05	-9.82E-05	-2.58E-05	-0.000123965	0.000102577	0.000186864	0.000289441	-2.93E-05	7.96E-06	-2.13E-05	0
1.6	-4.07E-05	1.44E-05	-2.64E-05	1.14E-05	1.67E-05	2.80E-05	2.34E-18	1.33E-17	1.56E-17	-9.31E-05	-1.42E-05	-0.000107394	5.83E-05	2.46E-05	8.29E-05	2.97E-05	8.61E-06	3.83E-05	8.11E-06	-3.44E-06	4.68E-06	-2.98E-05	-1.31E-05	-4.29E-05	-3.90E-05	-2.12E-05	-6.02E-05	-4.31E-05	-3.50E-05	-7.81E-05	-3.29E-05	-3.65E-05	-6.94E-05	-5.81E-05	1.06E-05	-4.75E-05	6.14E-06	4.88E-05	5.50E-05	9.65E-18	1.19E-18	1.08E-17	7.20E-06	4.74E-05	5.46E-05	-1.57E-05	1.90E-05	3.33E-06	-7.87E-06	1.94E-05	1.15E-05	1.64E-05	1.51E-05	3.16E-05	-6.59E-05	-1.07E-05	-7.65E-05	-8.09E-05	-1.36E-05	-9.45E-05	7.85E-05	9.09E-05	0.000169445	-2.13E-05	1.09E-05	-1.04E-05	2.06E-05	2.42E-05	4.48E-05	3.56E-05	-9.91E-06	2.57E-05	-5.69E-18	1.01E-18	-4.68E-18	-2.96E-05	-3.54E-05	-6.50E-05	7.25E-05	-8.72E-06	6.37E-05	6.19E-05	-7.94E-06	5.40E-05	3.32E-05	1.52E-06	3.47E-05	-5.30E-05	-1.67E-05	-6.97E-05	-5.17E-05	-1.98E-05	-7.15E-05	-7.77E-05	-3.40E-05	-0.000111655	-5.94E-05	-4.11E-05	-0.000100505	2.16E-05	8.16E-07	2.25E-05	6.44E-05	2.69E-05	9.13E-05	-4.58E-18	1.76E-18	-2.82E-18	0.000102772	1.50E-05	0.000117729	-8.15E-06	-3.54E-05	-4.36E-05	2.52E-05	-2.51E-05	2.60E-08	3.29E-05	7.39E-06	4.03E-05	-5.27E-05	-3.69E-05	-8.96E-05	-9.83E-05	-2.58E-05	-0.000124129	0.000102699	0.000183909	0.000286609	-2.93E-05	7.86E-06	-2.14E-05	0
1.64	-4.15E-05	1.48E-05	-2.67E-05	1.15E-05	1.73E-05	2.89E-05	2.70E-18	1.39E-17	1.66E-17	-9.49E-05	-1.45E-05	-0.000109369	5.90E-05	2.51E-05	8.41E-05	3.00E-05	8.99E-06	3.90E-05	8.73E-06	-3.45E-06	5.27E-06	-2.98E-05	-1.35E-05	-4.32E-05	-3.91E-05	-2.15E-05	-6.06E-05	-4.30E-05	-3.56E-05	-7.86E-05	-3.31E-05	-3.70E-05	-7.01E-05	-5.94E-05	1.12E-05	-4.82E-05	6.29E-06	5.01E-05	5.64E-05	1.07E-17	1.83E-18	1.25E-17	7.33E-06	4.88E-05	5.61E-05	-1.62E-05	1.95E-05	3.32E-06	-8.57E-06	2.00E-05	1.15E-05	1.71E-05	1.57E-05	3.28E-05	-6.70E-05	-1.08E-05	-7.78E-05	-8.18E-05	-1.39E-05	-9.57E-05	7.94E-05	9.23E-05	0.000171763	-2.13E-05	1.11E-05	-1.02E-05	2.07E-05	2.43E-05	4.50E-05	3.68E-05	-9.85E-06	2.69E-05	-6.48E-18	1.18E-18	-5.30E-18	-3.04E-05	-3.59E-05	-6.63E-05	7.45E-05	-8.30E-06	6.62E-05	6.22E-05	-8.29E-06	5.39E-05	3.30E-05	1.07E-06	3.40E-05	-5.27E-05	-1.67E-05	-6.94E-05	-5.12E-05	-1.98E-05	-7.11E-05	-7.78E-05	-3.41E-05	-0.000111931	-5.96E-05	-4.11E-05	-0.00010069	2.31E-05	6.27E-07	2.37E-05	6.43E-05	2.61E-05	9.05E-05	-5.32E-18	1.98E-18	-3.34E-18	0.000102867	1.43E-05	0.000117199	-6.75E-06	-3.51E-05	-4.19E-05	2.52E-05	-2.57E-05	-4.26E-07	3.20E-05	6.65E-06	3.87E-05	-5.31E-05	-3.73E-05	-9.03E-05	-9.84E-05	-2.58E-05	-0.000124197	0.000102769	0.000180962	0.000283732	-2.93E-05	7.77E-06	-2.15E-05	0
1.68	-4.23E-05	1.52E-05	-2.71E-05	1.17E-05	1.80E-05	2.97E-05	3.04E-18	1.44E-17	1.74E-17	-9.67E-05	-1.47E-05	-0.000111326	5.96E-05	2.55E-05	8.52E-05	3.03E-05	9.36E-06	3.96E-05	9.39E-06	-3.48E-06	5.91E-06	-2.97E-05	-1.38E-05	-4.35E-05	-3.92E-05	-2.17E-05	-6.09E-05	-4.28E-05	-3.62E-05	-7.90E-05	-3.31E-05	-3.75E-05	-7.07E-05	-6.06E-05	1.17E-05	-4.88E-05	6.44E-06	5.14E-05	5.78E-05	1.16E-17	2.42E-18	1.40E-17	7.45E-06	5.02E-05	5.76E-05	-1.67E-05	2.00E-05	3.31E-06	-9.27E-06	2.07E-05	1.14E-05	1.77E-05	1.63E-05	3.40E-05	-6.81E-05	-1.09E-05	-7.90E-05	-8.27E-05	-1.42E-05	-9.69E-05	8.03E-05	9.37E-05	0.000174011	-2.13E-05	1.13E-05	-1.01E-05	2.08E-05	2.43E-05	4.51E-05	3.79E-05	-9.80E-06	2.81E-05	-7.19E-18	1.33E-18	-5.86E-18	-3.11E-05	-3.63E-05	-6.75E-05	7.65E-05	-7.91E-06	6.86E-05	6.24E-05	-8.63E-06	5.38E-05	3.27E-05	6.28E-07	3.34E-05	-5.24E-05	-1.67E-05	-6.91E-05	-5.08E-05	-1.98E-05	-7.05E-05	-7.79E-05	-3.42E-05	-0.000112131	-5.98E-05	-4.10E-05	-0.0001008	2.45E-05	4.02E-07	2.49E-05	6.43E-05	2.53E-05	8.96E-05	-5.99E-18	2.18E-18	-3.81E-18	0.00010288	1.37E-05	0.000116567	-5.43E-06	-3.49E-05	-4.03E-05	2.53E-05	-2.62E-05	-8.85E-07	3.12E-05	5.90E-06	3.71E-05	-5.34E-05	-3.76E-05	-9.10E-05	-9.83E-05	-2.59E-05	-0.000124183	0.000102798	0.00017807	0.000280868	-2.92E-05	7.68E-06	-2.15E-05	0
