time	2HRF HbO_1_1	2HRF HbR_1_1	2HRF HbT_1_1	2HRF HbO_1_2	2HRF HbR_1_2	2HRF HbT_1_2	2HRF HbO_2_1	2HRF HbR_2_1	2HRF HbT_2_1	2HRF HbO_3_1	2HRF HbR_3_1	2HRF HbT_3_1	2HRF HbO_3_2	2HRF HbR_3_2	2HRF HbT_3_2	2HRF HbO_3_4	2HRF HbR_3_4	2HRF HbT_3_4	2HRF HbO_4_2	2HRF HbR_4_2	2HRF HbT_4_2	2HRF HbO_4_3	2HRF HbR_4_3	2HRF HbT_4_3	2HRF HbO_4_4	2HRF HbR_4_4	2HRF HbT_4_4	2HRF HbO_5_3	2HRF HbR_5_3	2HRF HbT_5_3	2HRF HbO_5_4	2HRF HbR_5_4	2HRF HbT_5_4	2HRF HbO_6_5	2HRF HbR_6_5	2HRF HbT_6_5	2HRF HbO_6_6	2HRF HbR_6_6	2HRF HbT_6_6	2HRF HbO_7_5	2HRF HbR_7_5	2HRF HbT_7_5	2HRF HbO_8_5	2HRF HbR_8_5	2HRF HbT_8_5	2HRF HbO_8_6	2HRF HbR_8_6	2HRF HbT_8_6	2HRF HbO_8_7	2HRF HbR_8_7	2HRF HbT_8_7	2HRF HbO_9_6	2HRF HbR_9_6	2HRF HbT_9_6	2HRF HbO_9_7	2HRF HbR_9_7	2HRF HbT_9_7	2HRF HbO_9_8	2HRF HbR_9_8	2HRF HbT_9_8	2HRF HbO_10_7	2HRF HbR_10_7	2HRF HbT_10_7	2HRF HbO_10_8	2HRF HbR_10_8	2HRF HbT_10_8	3HRF HbO_1_1	3HRF HbR_1_1	3HRF HbT_1_1	3HRF HbO_1_2	3HRF HbR_1_2	3HRF HbT_1_2	3HRF HbO_2_1	3HRF HbR_2_1	3HRF HbT_2_1	3HRF HbO_3_1	3HRF HbR_3_1	3HRF HbT_3_1	3HRF HbO_3_2	3HRF HbR_3_2	3HRF HbT_3_2	3HRF HbO_3_4	3HRF HbR_3_4	3HRF HbT_3_4	3HRF HbO_4_2	3HRF HbR_4_2	3HRF HbT_4_2	3HRF HbO_4_3	3HRF HbR_4_3	3HRF HbT_4_3	3HRF HbO_4_4	3HRF HbR_4_4	3HRF HbT_4_4	3HRF HbO_5_3	3HRF HbR_5_3	3HRF HbT_5_3	3HRF HbO_5_4	3HRF HbR_5_4	3HRF HbT_5_4	3HRF HbO_6_5	3HRF HbR_6_5	3HRF HbT_6_5	3HRF HbO_6_6	3HRF HbR_6_6	3HRF HbT_6_6	3HRF HbO_7_5	3HRF HbR_7_5	3HRF HbT_7_5	3HRF HbO_8_5	3HRF HbR_8_5	3HRF HbT_8_5	3HRF HbO_8_6	3HRF HbR_8_6	3HRF HbT_8_6	3HRF HbO_8_7	3HRF HbR_8_7	3HRF HbT_8_7	3HRF HbO_9_6	3HRF HbR_9_6	3HRF HbT_9_6	3HRF HbO_9_7	3HRF HbR_9_7	3HRF HbT_9_7	3HRF HbO_9_8	3HRF HbR_9_8	3HRF HbT_9_8	3HRF HbO_10_7	3HRF HbR_10_7	3HRF HbT_10_7	3HRF HbO_10_8	3HRF HbR_10_8	3HRF HbT_10_8	status
-2	1.90E-05	2.62E-07	1.93E-05	4.32E-07	-1.77E-05	-1.72E-05	-2.00E-17	-4.40E-18	-2.44E-17	2.65E-06	-1.75E-05	-1.48E-05	2.19E-05	-1.72E-05	4.67E-06	9.29E-06	-1.67E-05	-7.40E-06	-4.67E-05	-2.06E-05	-6.73E-05	-2.65E-05	5.31E-07	-2.60E-05	-3.22E-05	-1.12E-05	-4.33E-05	-3.80E-05	1.34E-05	-2.45E-05	-1.34E-05	-5.53E-06	-1.89E-05	7.28E-06	-2.89E-06	4.39E-06	-1.28E-06	-1.85E-05	-1.97E-05	-1.17E-17	2.09E-18	-9.60E-18	9.46E-06	-1.16E-05	-2.12E-06	1.25E-05	-2.15E-05	-8.95E-06	-1.01E-05	-3.14E-05	-4.14E-05	-8.11E-06	-2.21E-05	-3.02E-05	4.29E-06	-1.44E-05	-1.01E-05	-1.19E-05	-5.55E-07	-1.24E-05	-2.26E-06	-4.76E-06	-7.02E-06	-1.61E-05	1.38E-06	-1.47E-05	1.07E-05	8.30E-06	1.90E-05	8.46E-06	1.09E-06	9.55E-06	9.76E-18	1.66E-18	1.14E-17	-6.49E-06	-1.06E-05	-1.71E-05	1.22E-05	-2.74E-06	9.42E-06	-8.99E-07	-9.51E-06	-1.04E-05	-1.90E-05	-9.87E-06	-2.89E-05	2.04E-05	-5.67E-07	1.98E-05	-1.23E-06	-6.60E-06	-7.83E-06	4.39E-05	-6.02E-06	3.79E-05	2.49E-05	6.80E-06	3.17E-05	-7.19E-06	-2.12E-05	-2.84E-05	-4.01E-05	-2.48E-05	-6.49E-05	-1.98E-17	6.61E-18	-1.32E-17	-2.98E-05	-5.19E-05	-8.17E-05	-6.07E-06	2.16E-07	-5.86E-06	-4.10E-05	-1.92E-05	-6.02E-05	-7.60E-05	-3.10E-05	-0.00010703	-8.78E-05	-3.11E-05	-0.000118872	7.66E-06	1.02E-05	1.78E-05	-1.09E-05	7.24E-06	-3.62E-06	1.21E-05	6.00E-06	1.81E-05	0
-1.96	1.83E-05	6.98E-07	1.90E-05	-1.45E-06	-1.75E-05	-1.90E-05	-2.01E-17	-4.44E-18	-2.45E-17	1.33E-06	-1.72E-05	-1.59E-05	2.01E-05	-1.61E-05	3.97E-06	7.34E-06	-1.59E-05	-8.54E-06	-4.78E-05	-2.01E-05	-6.79E-05	-2.51E-05	5.89E-07	-2.46E-05	-3.29E-05	-1.05E-05	-4.35E-05	-3.66E-05	1.32E-05	-2.34E-05	-1.34E-05	-5.05E-06	-1.85E-05	7.05E-06	-2.82E-06	4.23E-06	-2.77E-06	-1.81E-05	-2.08E-05	-1.18E-17	2.17E-18	-9.60E-18	7.63E-06	-1.22E-05	-4.59E-06	1.05E-05	-2.05E-05	-9.96E-06	-1.34E-05	-3.11E-05	-4.46E-05	-1.15E-05	-2.21E-05	-3.36E-05	1.48E-06	-1.37E-05	-1.22E-05	-1.14E-05	-5.00E-07	-1.19E-05	-2.98E-06	-3.92E-06	-6.90E-06	-1.53E-05	1.90E-06	-1.34E-05	1.09E-05	8.33E-06	1.92E-05	9.31E-06	1.60E-06	1.09E-05	9.87E-18	1.67E-18	1.15E-17	-6.29E-06	-1.05E-05	-1.68E-05	1.15E-05	-2.94E-06	8.54E-06	-1.00E-06	-9.25E-06	-1.02E-05	-1.70E-05	-9.51E-06	-2.65E-05	2.17E-05	-2.27E-07	2.14E-05	-1.50E-07	-6.32E-06	-6.47E-06	4.53E-05	-5.13E-06	4.02E-05	2.51E-05	7.17E-06	3.22E-05	-7.12E-06	-2.10E-05	-2.81E-05	-3.93E-05	-2.38E-05	-6.32E-05	-1.99E-17	6.69E-18	-1.32E-17	-3.02E-05	-5.18E-05	-8.20E-05	-5.69E-06	9.38E-07	-4.75E-06	-4.12E-05	-1.87E-05	-5.98E-05	-7.41E-05	-3.05E-05	-0.000104646	-8.74E-05	-3.13E-05	-0.000118708	8.91E-06	1.06E-05	1.95E-05	-1.02E-05	7.94E-06	-2.21E-06	1.33E-05	6.89E-06	2.02E-05	0
-1.92	1.76E-05	1.13E-06	1.87E-05	-3.27E-06	-1.73E-05	-2.06E-05	-2.01E-17	-4.46E-18	-2.46E-17	3.72E-08	-1.70E-05	-1.70E-05	1.82E-05	-1.50E-05	3.28E-06	5.43E-06	-1.51E-05	-9.64E-06	-4.89E-05	-1.95E-05	-6.83E-05	-2.37E-05	6.42E-07	-2.31E-05	-3.36E-05	-9.93E-06	-4.36E-05	-3.51E-05	1.29E-05	-2.23E-05	-1.35E-05	-4.58E-06	-1.80E-05	6.81E-06	-2.74E-06	4.07E-06	-4.21E-06	-1.76E-05	-2.19E-05	-1.18E-17	2.23E-18	-9.56E-18	5.84E-06	-1.28E-05	-6.99E-06	8.61E-06	-1.95E-05	-1.09E-05	-1.67E-05	-3.08E-05	-4.75E-05	-1.48E-05	-2.21E-05	-3.69E-05	-1.27E-06	-1.30E-05	-1.43E-05	-1.09E-05	-4.41E-07	-1.13E-05	-3.68E-06	-3.10E-06	-6.78E-06	-1.45E-05	2.40E-06	-1.21E-05	1.11E-05	8.34E-06	1.94E-05	1.01E-05	2.08E-06	1.22E-05	9.95E-18	1.67E-18	1.16E-17	-6.09E-06	-1.03E-05	-1.64E-05	1.08E-05	-3.12E-06	7.66E-06	-1.10E-06	-8.97E-06	-1.01E-05	-1.51E-05	-9.15E-06	-2.42E-05	2.29E-05	1.05E-07	2.30E-05	8.97E-07	-6.04E-06	-5.14E-06	4.66E-05	-4.25E-06	4.23E-05	2.52E-05	7.51E-06	3.27E-05	-7.02E-06	-2.08E-05	-2.78E-05	-3.85E-05	-2.29E-05	-6.13E-05	-1.99E-17	6.74E-18	-1.31E-17	-3.05E-05	-5.16E-05	-8.21E-05	-5.30E-06	1.64E-06	-3.66E-06	-4.13E-05	-1.81E-05	-5.94E-05	-7.21E-05	-3.00E-05	-0.000102117	-8.69E-05	-3.14E-05	-0.000118281	1.01E-05	1.10E-05	2.11E-05	-9.44E-06	8.60E-06	-8.40E-07	1.44E-05	7.74E-06	2.22E-05	0
-1.88	1.69E-05	1.55E-06	1.84E-05	-5.03E-06	-1.71E-05	-2.21E-05	-2.00E-17	-4.46E-18	-2.45E-17	-1.22E-06	-1.68E-05	-1.80E-05	1.64E-05	-1.38E-05	2.61E-06	3.57E-06	-1.43E-05	-1.07E-05	-4.97E-05	-1.88E-05	-6.86E-05	-2.23E-05	6.89E-07	-2.16E-05	-3.42E-05	-9.33E-06	-4.35E-05	-3.36E-05	1.26E-05	-2.11E-05	-1.35E-05	-4.11E-06	-1.76E-05	6.56E-06	-2.66E-06	3.90E-06	-5.59E-06	-1.72E-05	-2.28E-05	-1.18E-17	2.29E-18	-9.47E-18	4.09E-06	-1.34E-05	-9.29E-06	6.72E-06	-1.86E-05	-1.18E-05	-1.98E-05	-3.04E-05	-5.02E-05	-1.80E-05	-2.20E-05	-4.00E-05	-3.94E-06	-1.24E-05	-1.63E-05	-1.04E-05	-3.78E-07	-1.07E-05	-4.35E-06	-2.29E-06	-6.65E-06	-1.37E-05	2.90E-06	-1.08E-05	1.12E-05	8.33E-06	1.95E-05	1.09E-05	2.54E-06	1.34E-05	9.98E-18	1.66E-18	1.16E-17	-5.90E-06	-1.02E-05	-1.61E-05	1.01E-05	-3.29E-06	6.78E-06	-1.20E-06	-8.69E-06	-9.89E-06	-1.32E-05	-8.79E-06	-2.20E-05	2.41E-05	4.28E-07	2.45E-05	1.90E-06	-5.76E-06	-3.86E-06	4.77E-05	-3.39E-06	4.43E-05	2.53E-05	7.82E-06	3.31E-05	-6.89E-06	-2.05E-05	-2.74E-05	-3.75E-05	-2.19E-05	-5.94E-05	-1.98E-17	6.77E-18	-1.30E-17	-3.07E-05	-5.13E-05	-8.20E-05	-4.91E-06	2.31E-06	-2.60E-06	-4.13E-05	-1.76E-05	-5.89E-05	-7.00E-05	-2.94E-05	-9.94E-05	-8.62E-05	-3.14E-05	-0.000117574	1.13E-05	1.14E-05	2.26E-05	-8.72E-06	9.22E-06	4.98E-07	1.55E-05	8.54E-06	2.41E-05	0
-1.84	1.62E-05	1.96E-06	1.81E-05	-6.72E-06	-1.69E-05	-2.36E-05	-1.98E-17	-4.45E-18	-2.43E-17	-2.43E-06	-1.65E-05	-1.89E-05	1.47E-05	-1.27E-05	1.97E-06	1.75E-06	-1.34E-05	-1.17E-05	-5.05E-05	-1.82E-05	-6.87E-05	-2.09E-05	7.30E-07	-2.01E-05	-3.47E-05	-8.73E-06	-4.34E-05	-3.21E-05	1.22E-05	-1.98E-05	-1.34E-05	-3.65E-06	-1.71E-05	6.31E-06	-2.58E-06	3.73E-06	-6.91E-06	-1.67E-05	-2.36E-05	-1.17E-17	2.33E-18	-9.34E-18	2.39E-06	-1.39E-05	-1.15E-05	4.89E-06	-1.76E-05	-1.27E-05	-2.27E-05	-3.00E-05	-5.27E-05	-2.10E-05	-2.19E-05	-4.29E-05	-6.53E-06	-1.17E-05	-1.82E-05	-9.85E-06	-3.13E-07	-1.02E-05	-4.99E-06	-1.51E-06	-6.50E-06	-1.29E-05	3.37E-06	-9.56E-06	1.13E-05	8.31E-06	1.97E-05	1.15E-05	2.96E-06	1.45E-05	9.98E-18	1.65E-18	1.16E-17	-5.71E-06	-1.00E-05	-1.57E-05	9.37E-06	-3.45E-06	5.92E-06	-1.30E-06	-8.40E-06	-9.69E-06	-1.13E-05	-8.44E-06	-1.98E-05	2.52E-05	7.41E-07	2.59E-05	2.86E-06	-5.49E-06	-2.63E-06	4.87E-05	-2.54E-06	4.62E-05	2.53E-05	8.10E-06	3.34E-05	-6.74E-06	-2.01E-05	-2.68E-05	-3.65E-05	-2.09E-05	-5.74E-05	-1.96E-17	6.76E-18	-1.28E-17	-3.09E-05	-5.08E-05	-8.16E-05	-4.51E-06	2.94E-06	-1.57E-06	-4.12E-05	-1.70E-05	-5.82E-05	-6.79E-05	-2.88E-05	-9.66E-05	-8.53E-05	-3.13E-05	-0.00011657	1.24E-05	1.17E-05	2.40E-05	-7.99E-06	9.79E-06	1.79E-06	1.65E-05	9.29E-06	2.58E-05	0
-1.8	1.55E-05	2.35E-06	1.78E-05	-8.34E-06	-1.66E-05	-2.49E-05	-1.96E-17	-4.42E-18	-2.40E-17	-3.59E-06	-1.62E-05	-1.98E-05	1.29E-05	-1.16E-05	1.34E-06	4.32E-09	-1.26E-05	-1.26E-05	-5.10E-05	-1.76E-05	-6.86E-05	-1.94E-05	7.64E-07	-1.86E-05	-3.50E-05	-8.15E-06	-4.31E-05	-3.04E-05	1.18E-05	-1.86E-05	-1.34E-05	-3.20E-06	-1.66E-05	6.04E-06	-2.49E-06	3.55E-06	-8.14E-06	-1.62E-05	-2.44E-05	-1.15E-17	2.37E-18	-9.16E-18	7.54E-07	-1.43E-05	-1.36E-05	3.11E-06	-1.66E-05	-1.35E-05	-2.54E-05	-2.95E-05	-5.49E-05	-2.38E-05	-2.17E-05	-4.55E-05	-9.02E-06	-1.10E-05	-2.00E-05	-9.33E-06	-2.44E-07	-9.58E-06	-5.60E-06	-7.58E-07	-6.35E-06	-1.21E-05	3.82E-06	-8.32E-06	1.15E-05	8.27E-06	1.97E-05	1.22E-05	3.36E-06	1.55E-05	9.93E-18	1.63E-18	1.16E-17	-5.52E-06	-9.83E-06	-1.54E-05	8.67E-06	-3.59E-06	5.08E-06	-1.39E-06	-8.10E-06	-9.49E-06	-9.57E-06	-8.08E-06	-1.77E-05	2.62E-05	1.04E-06	2.72E-05	3.77E-06	-5.22E-06	-1.45E-06	4.95E-05	-1.72E-06	4.78E-05	2.53E-05	8.35E-06	3.37E-05	-6.55E-06	-1.97E-05	-2.62E-05	-3.55E-05	-1.98E-05	-5.53E-05	-1.93E-17	6.71E-18	-1.26E-17	-3.09E-05	-5.01E-05	-8.11E-05	-4.12E-06	3.55E-06	-5.69E-07	-4.11E-05	-1.64E-05	-5.75E-05	-6.56E-05	-2.81E-05	-9.36E-05	-8.41E-05	-3.11E-05	-0.000115254	1.34E-05	1.19E-05	2.53E-05	-7.26E-06	1.03E-05	3.04E-06	1.75E-05	9.98E-06	2.74E-05	0
-1.76	1.47E-05	2.73E-06	1.75E-05	-9.86E-06	-1.63E-05	-2.61E-05	-1.93E-17	-4.37E-18	-2.36E-17	-4.69E-06	-1.58E-05	-2.05E-05	1.12E-05	-1.05E-05	7.47E-07	-1.67E-06	-1.18E-05	-1.35E-05	-5.13E-05	-1.69E-05	-6.83E-05	-1.79E-05	7.91E-07	-1.71E-05	-3.52E-05	-7.59E-06	-4.28E-05	-2.87E-05	1.14E-05	-1.73E-05	-1.33E-05	-2.75E-06	-1.60E-05	5.77E-06	-2.40E-06	3.36E-06	-9.29E-06	-1.57E-05	-2.50E-05	-1.13E-17	2.39E-18	-8.93E-18	-8.18E-07	-1.47E-05	-1.55E-05	1.41E-06	-1.56E-05	-1.42E-05	-2.80E-05	-2.89E-05	-5.69E-05	-2.64E-05	-2.15E-05	-4.79E-05	-1.14E-05	-1.04E-05	-2.17E-05	-8.82E-06	-1.72E-07	-8.99E-06	-6.16E-06	-3.12E-08	-6.19E-06	-1.14E-05	4.25E-06	-7.10E-06	1.16E-05	8.21E-06	1.98E-05	1.27E-05	3.72E-06	1.64E-05	9.84E-18	1.61E-18	1.14E-17	-5.34E-06	-9.64E-06	-1.50E-05	7.98E-06	-3.72E-06	4.26E-06	-1.48E-06	-7.79E-06	-9.27E-06	-7.89E-06	-7.73E-06	-1.56E-05	2.71E-05	1.33E-06	2.85E-05	4.62E-06	-4.95E-06	-3.31E-07	5.02E-05	-9.23E-07	4.93E-05	2.52E-05	8.56E-06	3.38E-05	-6.34E-06	-1.92E-05	-2.55E-05	-3.43E-05	-1.88E-05	-5.31E-05	-1.89E-17	6.63E-18	-1.22E-17	-3.08E-05	-4.94E-05	-8.02E-05	-3.72E-06	4.11E-06	3.90E-07	-4.08E-05	-1.58E-05	-5.66E-05	-6.32E-05	-2.73E-05	-9.05E-05	-8.27E-05	-3.09E-05	-0.000113609	1.43E-05	1.22E-05	2.65E-05	-6.53E-06	1.08E-05	4.23E-06	1.83E-05	1.06E-05	2.89E-05	0
-1.72	1.40E-05	3.09E-06	1.71E-05	-1.13E-05	-1.59E-05	-2.72E-05	-1.89E-17	-4.29E-18	-2.31E-17	-5.73E-06	-1.55E-05	-2.12E-05	9.55E-06	-9.37E-06	1.80E-07	-3.27E-06	-1.10E-05	-1.42E-05	-5.15E-05	-1.63E-05	-6.77E-05	-1.64E-05	8.11E-07	-1.56E-05	-3.53E-05	-7.03E-06	-4.23E-05	-2.70E-05	1.09E-05	-1.60E-05	-1.31E-05	-2.32E-06	-1.54E-05	5.48E-06	-2.31E-06	3.17E-06	-1.04E-05	-1.52E-05	-2.55E-05	-1.10E-17	2.40E-18	-8.65E-18	-2.31E-06	-1.50E-05	-1.73E-05	-2.23E-07	-1.46E-05	-1.48E-05	-3.03E-05	-2.83E-05	-5.85E-05	-2.89E-05	-2.12E-05	-5.00E-05	-1.36E-05	-9.69E-06	-2.33E-05	-8.30E-06	-9.72E-08	-8.39E-06	-6.68E-06	6.63E-07	-6.02E-06	-1.06E-05	4.66E-06	-5.92E-06	1.16E-05	8.13E-06	1.98E-05	1.32E-05	4.04E-06	1.72E-05	9.69E-18	1.58E-18	1.13E-17	-5.17E-06	-9.44E-06	-1.46E-05	7.28E-06	-3.83E-06	3.45E-06	-1.57E-06	-7.48E-06	-9.04E-06	-6.31E-06	-7.39E-06	-1.37E-05	2.80E-05	1.60E-06	2.96E-05	5.40E-06	-4.69E-06	7.18E-07	5.07E-05	-1.53E-07	5.05E-05	2.50E-05	8.73E-06	3.37E-05	-6.09E-06	-1.86E-05	-2.47E-05	-3.31E-05	-1.77E-05	-5.08E-05	-1.84E-17	6.51E-18	-1.19E-17	-3.07E-05	-4.84E-05	-7.91E-05	-3.32E-06	4.63E-06	1.30E-06	-4.04E-05	-1.51E-05	-5.56E-05	-6.07E-05	-2.65E-05	-8.72E-05	-8.11E-05	-3.05E-05	-0.000111622	1.52E-05	1.23E-05	2.75E-05	-5.79E-06	1.11E-05	5.36E-06	1.91E-05	1.11E-05	3.02E-05	0
-1.68	1.33E-05	3.43E-06	1.68E-05	-1.26E-05	-1.55E-05	-2.81E-05	-1.83E-17	-4.20E-18	-2.25E-17	-6.71E-06	-1.51E-05	-2.18E-05	7.93E-06	-8.29E-06	-3.55E-07	-4.78E-06	-1.01E-05	-1.49E-05	-5.14E-05	-1.56E-05	-6.70E-05	-1.49E-05	8.23E-07	-1.41E-05	-3.52E-05	-6.50E-06	-4.17E-05	-2.51E-05	1.04E-05	-1.47E-05	-1.29E-05	-1.90E-06	-1.48E-05	5.19E-06	-2.22E-06	2.97E-06	-1.13E-05	-1.46E-05	-2.59E-05	-1.07E-17	2.39E-18	-8.32E-18	-3.73E-06	-1.53E-05	-1.90E-05	-1.77E-06	-1.36E-05	-1.53E-05	-3.23E-05	-2.75E-05	-5.99E-05	-3.10E-05	-2.08E-05	-5.19E-05	-1.57E-05	-9.04E-06	-2.48E-05	-7.78E-06	-2.00E-08	-7.80E-06	-7.16E-06	1.32E-06	-5.84E-06	-9.81E-06	5.03E-06	-4.77E-06	1.17E-05	8.03E-06	1.97E-05	1.35E-05	4.33E-06	1.79E-05	9.51E-18	1.54E-18	1.10E-17	-5.00E-06	-9.23E-06	-1.42E-05	6.59E-06	-3.92E-06	2.67E-06	-1.65E-06	-7.15E-06	-8.80E-06	-4.81E-06	-7.04E-06	-1.19E-05	2.87E-05	1.85E-06	3.05E-05	6.12E-06	-4.43E-06	1.69E-06	5.10E-05	5.84E-07	5.16E-05	2.48E-05	8.86E-06	3.36E-05	-5.81E-06	-1.80E-05	-2.38E-05	-3.18E-05	-1.66E-05	-4.84E-05	-1.78E-17	6.36E-18	-1.14E-17	-3.04E-05	-4.73E-05	-7.77E-05	-2.93E-06	5.10E-06	2.17E-06	-3.99E-05	-1.45E-05	-5.44E-05	-5.81E-05	-2.56E-05	-8.37E-05	-7.92E-05	-3.00E-05	-0.000109281	1.59E-05	1.24E-05	2.84E-05	-5.06E-06	1.15E-05	6.42E-06	1.98E-05	1.16E-05	3.14E-05	0
-1.64	1.26E-05	3.75E-06	1.64E-05	-1.38E-05	-1.51E-05	-2.89E-05	-1.77E-17	-4.09E-18	-2.18E-17	-7.61E-06	-1.46E-05	-2.22E-05	6.37E-06	-7.22E-06	-8.55E-07	-6.20E-06	-9.31E-06	-1.55E-05	-5.11E-05	-1.49E-05	-6.60E-05	-1.34E-05	8.28E-07	-1.26E-05	-3.49E-05	-5.98E-06	-4.09E-05	-2.33E-05	9.89E-06	-1.34E-05	-1.27E-05	-1.50E-06	-1.41E-05	4.89E-06	-2.12E-06	2.77E-06	-1.22E-05	-1.40E-05	-2.61E-05	-1.03E-17	2.38E-18	-7.94E-18	-5.05E-06	-1.54E-05	-2.05E-05	-3.22E-06	-1.26E-05	-1.58E-05	-3.41E-05	-2.67E-05	-6.08E-05	-3.30E-05	-2.04E-05	-5.34E-05	-1.77E-05	-8.39E-06	-2.61E-05	-7.27E-06	5.94E-08	-7.21E-06	-7.58E-06	1.94E-06	-5.64E-06	-9.04E-06	5.38E-06	-3.67E-06	1.17E-05	7.91E-06	1.96E-05	1.38E-05	4.57E-06	1.84E-05	9.27E-18	1.49E-18	1.08E-17	-4.84E-06	-9.01E-06	-1.38E-05	5.91E-06	-3.99E-06	1.92E-06	-1.73E-06	-6.82E-06	-8.55E-06	-3.42E-06	-6.71E-06	-1.01E-05	2.93E-05	2.09E-06	3.14E-05	6.77E-06	-4.17E-06	2.59E-06	5.11E-05	1.29E-06	5.23E-05	2.44E-05	8.94E-06	3.34E-05	-5.49E-06	-1.73E-05	-2.28E-05	-3.04E-05	-1.55E-05	-4.59E-05	-1.71E-17	6.16E-18	-1.09E-17	-3.00E-05	-4.61E-05	-7.61E-05	-2.54E-06	5.52E-06	2.98E-06	-3.93E-05	-1.38E-05	-5.31E-05	-5.54E-05	-2.47E-05	-8.01E-05	-7.71E-05	-2.95E-05	-0.000106574	1.66E-05	1.25E-05	2.91E-05	-4.33E-06	1.17E-05	7.40E-06	2.03E-05	1.20E-05	3.24E-05	0
-1.6	1.19E-05	4.05E-06	1.60E-05	-1.49E-05	-1.47E-05	-2.95E-05	-1.71E-17	-3.95E-18	-2.10E-17	-8.43E-06	-1.42E-05	-2.26E-05	4.87E-06	-6.19E-06	-1.32E-06	-7.51E-06	-8.49E-06	-1.60E-05	-5.06E-05	-1.42E-05	-6.48E-05	-1.19E-05	8.26E-07	-1.11E-05	-3.46E-05	-5.49E-06	-4.00E-05	-2.13E-05	9.32E-06	-1.20E-05	-1.24E-05	-1.11E-06	-1.35E-05	4.58E-06	-2.02E-06	2.56E-06	-1.29E-05	-1.33E-05	-2.62E-05	-9.86E-18	2.35E-18	-7.52E-18	-6.28E-06	-1.55E-05	-2.18E-05	-4.57E-06	-1.16E-05	-1.61E-05	-3.56E-05	-2.58E-05	-6.15E-05	-3.47E-05	-1.99E-05	-5.46E-05	-1.95E-05	-7.76E-06	-2.72E-05	-6.75E-06	1.40E-07	-6.61E-06	-7.95E-06	2.51E-06	-5.43E-06	-8.29E-06	5.69E-06	-2.60E-06	1.17E-05	7.76E-06	1.95E-05	1.40E-05	4.77E-06	1.88E-05	8.98E-18	1.44E-18	1.04E-17	-4.68E-06	-8.77E-06	-1.34E-05	5.24E-06	-4.04E-06	1.20E-06	-1.81E-06	-6.48E-06	-8.28E-06	-2.14E-06	-6.37E-06	-8.51E-06	2.98E-05	2.30E-06	3.21E-05	7.34E-06	-3.93E-06	3.41E-06	5.09E-05	1.95E-06	5.29E-05	2.40E-05	8.98E-06	3.30E-05	-5.15E-06	-1.65E-05	-2.16E-05	-2.89E-05	-1.44E-05	-4.34E-05	-1.63E-17	5.93E-18	-1.04E-17	-2.94E-05	-4.46E-05	-7.41E-05	-2.16E-06	5.90E-06	3.74E-06	-3.85E-05	-1.31E-05	-5.17E-05	-5.26E-05	-2.37E-05	-7.63E-05	-7.47E-05	-2.88E-05	-0.000103493	1.72E-05	1.25E-05	2.96E-05	-3.61E-06	1.19E-05	8.30E-06	2.08E-05	1.23E-05	3.31E-05	0
-1.56	1.12E-05	4.32E-06	1.55E-05	-1.58E-05	-1.42E-05	-3.00E-05	-1.63E-17	-3.79E-18	-2.01E-17	-9.17E-06	-1.37E-05	-2.29E-05	3.43E-06	-5.17E-06	-1.74E-06	-8.71E-06	-7.68E-06	-1.64E-05	-4.99E-05	-1.35E-05	-6.34E-05	-1.04E-05	8.15E-07	-9.56E-06	-3.40E-05	-5.01E-06	-3.90E-05	-1.94E-05	8.71E-06	-1.07E-05	-1.20E-05	-7.35E-07	-1.27E-05	4.26E-06	-1.91E-06	2.35E-06	-1.35E-05	-1.27E-05	-2.62E-05	-9.34E-18	2.30E-18	-7.04E-18	-7.40E-06	-1.55E-05	-2.29E-05	-5.81E-06	-1.06E-05	-1.64E-05	-3.69E-05	-2.49E-05	-6.17E-05	-3.61E-05	-1.93E-05	-5.54E-05	-2.11E-05	-7.13E-06	-2.82E-05	-6.24E-06	2.23E-07	-6.02E-06	-8.26E-06	3.04E-06	-5.21E-06	-7.55E-06	5.96E-06	-1.59E-06	1.17E-05	7.59E-06	1.93E-05	1.41E-05	4.92E-06	1.90E-05	8.64E-18	1.38E-18	1.00E-17	-4.52E-06	-8.52E-06	-1.30E-05	4.58E-06	-4.07E-06	5.14E-07	-1.87E-06	-6.13E-06	-8.00E-06	-9.72E-07	-6.04E-06	-7.01E-06	3.01E-05	2.50E-06	3.26E-05	7.83E-06	-3.68E-06	4.14E-06	5.05E-05	2.57E-06	5.31E-05	2.35E-05	8.97E-06	3.25E-05	-4.78E-06	-1.56E-05	-2.04E-05	-2.74E-05	-1.33E-05	-4.07E-05	-1.54E-17	5.66E-18	-9.74E-18	-2.88E-05	-4.30E-05	-7.18E-05	-1.78E-06	6.21E-06	4.43E-06	-3.77E-05	-1.25E-05	-5.01E-05	-4.97E-05	-2.27E-05	-7.24E-05	-7.21E-05	-2.79E-05	-0.00010003	1.76E-05	1.24E-05	3.00E-05	-2.90E-06	1.20E-05	9.12E-06	2.12E-05	1.26E-05	3.37E-05	0
-1.52	1.05E-05	4.55E-06	1.51E-05	-1.66E-05	-1.36E-05	-3.02E-05	-1.54E-17	-3.61E-18	-1.90E-17	-9.81E-06	-1.32E-05	-2.30E-05	2.07E-06	-4.19E-06	-2.12E-06	-9.79E-06	-6.88E-06	-1.67E-05	-4.89E-05	-1.28E-05	-6.17E-05	-8.86E-06	7.98E-07	-8.07E-06	-3.33E-05	-4.56E-06	-3.78E-05	-1.74E-05	8.08E-06	-9.30E-06	-1.16E-05	-3.82E-07	-1.20E-05	3.94E-06	-1.81E-06	2.13E-06	-1.41E-05	-1.20E-05	-2.60E-05	-8.76E-18	2.24E-18	-6.52E-18	-8.41E-06	-1.55E-05	-2.39E-05	-6.95E-06	-9.60E-06	-1.65E-05	-3.78E-05	-2.38E-05	-6.16E-05	-3.72E-05	-1.87E-05	-5.59E-05	-2.25E-05	-6.51E-06	-2.90E-05	-5.73E-06	3.06E-07	-5.43E-06	-8.51E-06	3.53E-06	-4.98E-06	-6.81E-06	6.19E-06	-6.21E-07	1.16E-05	7.39E-06	1.90E-05	1.41E-05	5.03E-06	1.91E-05	8.25E-18	1.31E-18	9.56E-18	-4.37E-06	-8.25E-06	-1.26E-05	3.93E-06	-4.07E-06	-1.37E-07	-1.93E-06	-5.77E-06	-7.70E-06	8.22E-08	-5.72E-06	-5.64E-06	3.03E-05	2.67E-06	3.30E-05	8.23E-06	-3.45E-06	4.78E-06	4.99E-05	3.15E-06	5.31E-05	2.29E-05	8.91E-06	3.18E-05	-4.37E-06	-1.47E-05	-1.91E-05	-2.58E-05	-1.22E-05	-3.80E-05	-1.44E-17	5.35E-18	-9.06E-18	-2.80E-05	-4.13E-05	-6.93E-05	-1.41E-06	6.47E-06	5.06E-06	-3.66E-05	-1.17E-05	-4.84E-05	-4.67E-05	-2.16E-05	-6.83E-05	-6.92E-05	-2.70E-05	-9.62E-05	1.79E-05	1.22E-05	3.02E-05	-2.20E-06	1.20E-05	9.84E-06	2.14E-05	1.27E-05	3.41E-05	0
-1.48	9.84E-06	4.76E-06	1.46E-05	-1.72E-05	-1.30E-05	-3.03E-05	-1.44E-17	-3.41E-18	-1.79E-17	-1.04E-05	-1.26E-05	-2.30E-05	7.79E-07	-3.24E-06	-2.46E-06	-1.08E-05	-6.10E-06	-1.69E-05	-4.77E-05	-1.20E-05	-5.97E-05	-7.37E-06	7.72E-07	-6.59E-06	-3.24E-05	-4.12E-06	-3.65E-05	-1.53E-05	7.41E-06	-7.94E-06	-1.12E-05	-4.82E-08	-1.12E-05	3.60E-06	-1.70E-06	1.91E-06	-1.44E-05	-1.12E-05	-2.57E-05	-8.12E-18	2.16E-18	-5.95E-18	-9.31E-06	-1.53E-05	-2.46E-05	-7.96E-06	-8.62E-06	-1.66E-05	-3.84E-05	-2.27E-05	-6.11E-05	-3.80E-05	-1.79E-05	-5.60E-05	-2.37E-05	-5.91E-06	-2.96E-05	-5.23E-06	3.89E-07	-4.84E-06	-8.69E-06	3.96E-06	-4.73E-06	-6.10E-06	6.39E-06	2.90E-07	1.15E-05	7.17E-06	1.87E-05	1.40E-05	5.08E-06	1.91E-05	7.81E-18	1.23E-18	9.04E-18	-4.23E-06	-7.96E-06	-1.22E-05	3.30E-06	-4.05E-06	-7.49E-07	-1.99E-06	-5.40E-06	-7.39E-06	1.02E-06	-5.40E-06	-4.38E-06	3.04E-05	2.82E-06	3.32E-05	8.55E-06	-3.22E-06	5.33E-06	4.91E-05	3.67E-06	5.28E-05	2.22E-05	8.80E-06	3.10E-05	-3.94E-06	-1.38E-05	-1.77E-05	-2.41E-05	-1.11E-05	-3.52E-05	-1.33E-17	5.01E-18	-8.32E-18	-2.71E-05	-3.93E-05	-6.64E-05	-1.05E-06	6.66E-06	5.62E-06	-3.55E-05	-1.10E-05	-4.65E-05	-4.36E-05	-2.04E-05	-6.40E-05	-6.60E-05	-2.60E-05	-9.19E-05	1.82E-05	1.20E-05	3.02E-05	-1.52E-06	1.20E-05	1.05E-05	2.15E-05	1.27E-05	3.42E-05	0
-1.44	9.16E-06	4.94E-06	1.41E-05	-1.77E-05	-1.24E-05	-3.01E-05	-1.34E-17	-3.19E-18	-1.66E-17	-1.08E-05	-1.20E-05	-2.28E-05	-4.30E-07	-2.32E-06	-2.75E-06	-1.16E-05	-5.32E-06	-1.69E-05	-4.62E-05	-1.13E-05	-5.75E-05	-5.89E-06	7.40E-07	-5.15E-06	-3.13E-05	-3.71E-06	-3.50E-05	-1.33E-05	6.71E-06	-6.57E-06	-1.07E-05	2.64E-07	-1.04E-05	3.27E-06	-1.58E-06	1.68E-06	-1.47E-05	-1.05E-05	-2.52E-05	-7.42E-18	2.08E-18	-5.34E-18	-1.01E-05	-1.51E-05	-2.51E-05	-8.85E-06	-7.65E-06	-1.65E-05	-3.87E-05	-2.15E-05	-6.02E-05	-3.85E-05	-1.71E-05	-5.57E-05	-2.48E-05	-5.32E-06	-3.01E-05	-4.72E-06	4.72E-07	-4.25E-06	-8.81E-06	4.33E-06	-4.47E-06	-5.39E-06	6.53E-06	1.14E-06	1.14E-05	6.92E-06	1.83E-05	1.38E-05	5.09E-06	1.89E-05	7.32E-18	1.15E-18	8.47E-18	-4.08E-06	-7.66E-06	-1.17E-05	2.68E-06	-4.00E-06	-1.32E-06	-2.03E-06	-5.03E-06	-7.06E-06	1.83E-06	-5.08E-06	-3.25E-06	3.02E-05	2.94E-06	3.32E-05	8.78E-06	-2.99E-06	5.79E-06	4.80E-05	4.15E-06	5.21E-05	2.14E-05	8.63E-06	3.00E-05	-3.48E-06	-1.27E-05	-1.62E-05	-2.23E-05	-9.95E-06	-3.23E-05	-1.21E-17	4.63E-18	-7.52E-18	-2.60E-05	-3.72E-05	-6.32E-05	-6.97E-07	6.80E-06	6.10E-06	-3.42E-05	-1.03E-05	-4.44E-05	-4.04E-05	-1.92E-05	-5.96E-05	-6.25E-05	-2.48E-05	-8.73E-05	1.82E-05	1.17E-05	3.00E-05	-8.60E-07	1.18E-05	1.10E-05	2.15E-05	1.27E-05	3.42E-05	0
-1.4	8.48E-06	5.07E-06	1.36E-05	-1.81E-05	-1.17E-05	-2.98E-05	-1.23E-17	-2.95E-18	-1.52E-17	-1.12E-05	-1.14E-05	-2.25E-05	-1.55E-06	-1.44E-06	-3.00E-06	-1.23E-05	-4.56E-06	-1.68E-05	-4.44E-05	-1.05E-05	-5.49E-05	-4.43E-06	7.01E-07	-3.73E-06	-3.01E-05	-3.31E-06	-3.34E-05	-1.12E-05	5.99E-06	-5.21E-06	-1.01E-05	5.55E-07	-9.58E-06	2.92E-06	-1.47E-06	1.46E-06	-1.48E-05	-9.69E-06	-2.45E-05	-6.67E-18	1.97E-18	-4.69E-18	-1.07E-05	-1.47E-05	-2.55E-05	-9.61E-06	-6.69E-06	-1.63E-05	-3.87E-05	-2.02E-05	-5.89E-05	-3.87E-05	-1.63E-05	-5.50E-05	-2.55E-05	-4.74E-06	-3.03E-05	-4.23E-06	5.54E-07	-3.67E-06	-8.86E-06	4.65E-06	-4.20E-06	-4.70E-06	6.63E-06	1.94E-06	1.12E-05	6.64E-06	1.79E-05	1.35E-05	5.05E-06	1.85E-05	6.79E-18	1.06E-18	7.85E-18	-3.94E-06	-7.34E-06	-1.13E-05	2.09E-06	-3.93E-06	-1.85E-06	-2.07E-06	-4.65E-06	-6.72E-06	2.52E-06	-4.76E-06	-2.24E-06	3.00E-05	3.03E-06	3.30E-05	8.91E-06	-2.77E-06	6.14E-06	4.66E-05	4.57E-06	5.12E-05	2.05E-05	8.41E-06	2.89E-05	-3.00E-06	-1.16E-05	-1.46E-05	-2.05E-05	-8.82E-06	-2.93E-05	-1.09E-17	4.22E-18	-6.67E-18	-2.48E-05	-3.49E-05	-5.98E-05	-3.59E-07	6.87E-06	6.51E-06	-3.27E-05	-9.48E-06	-4.22E-05	-3.72E-05	-1.79E-05	-5.51E-05	-5.88E-05	-2.35E-05	-8.23E-05	1.82E-05	1.14E-05	2.96E-05	-2.20E-07	1.16E-05	1.14E-05	2.13E-05	1.25E-05	3.38E-05	0
-1.36	7.80E-06	5.18E-06	1.30E-05	-1.83E-05	-1.10E-05	-2.93E-05	-1.11E-17	-2.69E-18	-1.37E-17	-1.14E-05	-1.07E-05	-2.21E-05	-2.59E-06	-6.06E-07	-3.20E-06	-1.28E-05	-3.81E-06	-1.67E-05	-4.24E-05	-9.74E-06	-5.22E-05	-3.00E-06	6.55E-07	-2.34E-06	-2.86E-05	-2.94E-06	-3.16E-05	-9.10E-06	5.24E-06	-3.86E-06	-9.53E-06	8.23E-07	-8.71E-06	2.58E-06	-1.35E-06	1.23E-06	-1.48E-05	-8.88E-06	-2.36E-05	-5.86E-18	1.86E-18	-4.01E-18	-1.13E-05	-1.43E-05	-2.55E-05	-1.02E-05	-5.74E-06	-1.60E-05	-3.83E-05	-1.88E-05	-5.71E-05	-3.86E-05	-1.53E-05	-5.39E-05	-2.61E-05	-4.17E-06	-3.03E-05	-3.73E-06	6.34E-07	-3.10E-06	-8.83E-06	4.92E-06	-3.91E-06	-4.02E-06	6.69E-06	2.66E-06	1.10E-05	6.34E-06	1.73E-05	1.31E-05	4.96E-06	1.80E-05	6.21E-18	9.67E-19	7.17E-18	-3.79E-06	-7.00E-06	-1.08E-05	1.51E-06	-3.84E-06	-2.33E-06	-2.09E-06	-4.26E-06	-6.36E-06	3.10E-06	-4.45E-06	-1.35E-06	2.95E-05	3.10E-06	3.26E-05	8.96E-06	-2.55E-06	6.41E-06	4.50E-05	4.94E-06	4.99E-05	1.95E-05	8.14E-06	2.76E-05	-2.50E-06	-1.05E-05	-1.30E-05	-1.86E-05	-7.70E-06	-2.63E-05	-9.55E-18	3.77E-18	-5.77E-18	-2.35E-05	-3.25E-05	-5.60E-05	-3.39E-08	6.88E-06	6.84E-06	-3.11E-05	-8.70E-06	-3.98E-05	-3.38E-05	-1.65E-05	-5.03E-05	-5.48E-05	-2.21E-05	-7.69E-05	1.80E-05	1.09E-05	2.89E-05	3.95E-07	1.13E-05	1.17E-05	2.10E-05	1.22E-05	3.33E-05	0
-1.32	7.13E-06	5.24E-06	1.24E-05	-1.83E-05	-1.02E-05	-2.85E-05	-9.78E-18	-2.41E-18	-1.22E-17	-1.16E-05	-9.99E-06	-2.16E-05	-3.54E-06	1.89E-07	-3.35E-06	-1.33E-05	-3.08E-06	-1.63E-05	-4.02E-05	-8.95E-06	-4.91E-05	-1.59E-06	6.04E-07	-9.91E-07	-2.70E-05	-2.58E-06	-2.96E-05	-7.00E-06	4.47E-06	-2.53E-06	-8.88E-06	1.07E-06	-7.82E-06	2.22E-06	-1.22E-06	1.00E-06	-1.46E-05	-8.04E-06	-2.27E-05	-5.01E-18	1.72E-18	-3.29E-18	-1.17E-05	-1.37E-05	-2.54E-05	-1.07E-05	-4.81E-06	-1.55E-05	-3.77E-05	-1.73E-05	-5.50E-05	-3.82E-05	-1.43E-05	-5.24E-05	-2.65E-05	-3.61E-06	-3.01E-05	-3.24E-06	7.12E-07	-2.53E-06	-8.74E-06	5.13E-06	-3.61E-06	-3.36E-06	6.69E-06	3.33E-06	1.07E-05	6.01E-06	1.67E-05	1.26E-05	4.82E-06	1.74E-05	5.58E-18	8.65E-19	6.45E-18	-3.65E-06	-6.64E-06	-1.03E-05	9.48E-07	-3.72E-06	-2.77E-06	-2.11E-06	-3.87E-06	-5.98E-06	3.55E-06	-4.14E-06	-5.90E-07	2.89E-05	3.14E-06	3.20E-05	8.91E-06	-2.34E-06	6.57E-06	4.31E-05	5.25E-06	4.83E-05	1.84E-05	7.81E-06	2.62E-05	-1.97E-06	-9.26E-06	-1.12E-05	-1.66E-05	-6.58E-06	-2.32E-05	-8.14E-18	3.30E-18	-4.84E-18	-2.21E-05	-2.98E-05	-5.19E-05	2.77E-07	6.82E-06	7.10E-06	-2.93E-05	-7.90E-06	-3.72E-05	-3.04E-05	-1.51E-05	-4.55E-05	-5.06E-05	-2.05E-05	-7.11E-05	1.77E-05	1.04E-05	2.81E-05	9.82E-07	1.09E-05	1.19E-05	2.06E-05	1.19E-05	3.25E-05	0
-1.28	6.45E-06	5.26E-06	1.17E-05	-1.81E-05	-9.43E-06	-2.76E-05	-8.43E-18	-2.11E-18	-1.05E-17	-1.16E-05	-9.25E-06	-2.08E-05	-4.39E-06	9.39E-07	-3.45E-06	-1.35E-05	-2.37E-06	-1.59E-05	-3.77E-05	-8.14E-06	-4.58E-05	-2.31E-07	5.47E-07	3.16E-07	-2.53E-05	-2.24E-06	-2.75E-05	-4.90E-06	3.68E-06	-1.22E-06	-8.19E-06	1.29E-06	-6.90E-06	1.87E-06	-1.09E-06	7.75E-07	-1.43E-05	-7.18E-06	-2.15E-05	-4.12E-18	1.58E-18	-2.54E-18	-1.19E-05	-1.31E-05	-2.50E-05	-1.11E-05	-3.89E-06	-1.50E-05	-3.66E-05	-1.58E-05	-5.24E-05	-3.74E-05	-1.32E-05	-5.06E-05	-2.65E-05	-3.07E-06	-2.96E-05	-2.76E-06	7.86E-07	-1.97E-06	-8.57E-06	5.27E-06	-3.30E-06	-2.71E-06	6.64E-06	3.93E-06	1.04E-05	5.64E-06	1.60E-05	1.19E-05	4.64E-06	1.66E-05	4.92E-18	7.57E-19	5.68E-18	-3.50E-06	-6.26E-06	-9.76E-06	4.11E-07	-3.57E-06	-3.16E-06	-2.11E-06	-3.47E-06	-5.58E-06	3.88E-06	-3.83E-06	5.77E-08	2.81E-05	3.15E-06	3.12E-05	8.77E-06	-2.13E-06	6.64E-06	4.09E-05	5.50E-06	4.64E-05	1.72E-05	7.43E-06	2.47E-05	-1.44E-06	-8.00E-06	-9.43E-06	-1.46E-05	-5.46E-06	-2.01E-05	-6.66E-18	2.80E-18	-3.86E-18	-2.05E-05	-2.70E-05	-4.75E-05	5.71E-07	6.70E-06	7.27E-06	-2.74E-05	-7.09E-06	-3.45E-05	-2.68E-05	-1.37E-05	-4.05E-05	-4.61E-05	-1.89E-05	-6.50E-05	1.72E-05	9.82E-06	2.71E-05	1.54E-06	1.04E-05	1.19E-05	2.00E-05	1.14E-05	3.14E-05	0
-1.24	5.78E-06	5.24E-06	1.10E-05	-1.78E-05	-8.58E-06	-2.64E-05	-7.02E-18	-1.80E-18	-8.81E-18	-1.15E-05	-8.46E-06	-2.00E-05	-5.15E-06	1.64E-06	-3.51E-06	-1.37E-05	-1.67E-06	-1.53E-05	-3.49E-05	-7.32E-06	-4.23E-05	1.09E-06	4.84E-07	1.58E-06	-2.33E-05	-1.92E-06	-2.53E-05	-2.81E-06	2.88E-06	6.25E-08	-7.44E-06	1.48E-06	-5.96E-06	1.51E-06	-9.65E-07	5.47E-07	-1.39E-05	-6.29E-06	-2.02E-05	-3.20E-18	1.42E-18	-1.78E-18	-1.21E-05	-1.24E-05	-2.44E-05	-1.13E-05	-2.99E-06	-1.43E-05	-3.53E-05	-1.42E-05	-4.94E-05	-3.62E-05	-1.20E-05	-4.83E-05	-2.64E-05	-2.54E-06	-2.89E-05	-2.28E-06	8.55E-07	-1.42E-06	-8.33E-06	5.36E-06	-2.97E-06	-2.08E-06	6.53E-06	4.45E-06	1.00E-05	5.25E-06	1.53E-05	1.12E-05	4.40E-06	1.56E-05	4.22E-18	6.45E-19	4.87E-18	-3.35E-06	-5.85E-06	-9.20E-06	-1.02E-07	-3.40E-06	-3.50E-06	-2.10E-06	-3.06E-06	-5.16E-06	4.11E-06	-3.51E-06	5.94E-07	2.71E-05	3.14E-06	3.02E-05	8.53E-06	-1.92E-06	6.61E-06	3.85E-05	5.69E-06	4.42E-05	1.59E-05	6.99E-06	2.29E-05	-8.87E-07	-6.69E-06	-7.58E-06	-1.26E-05	-4.35E-06	-1.69E-05	-5.14E-18	2.28E-18	-2.86E-18	-1.87E-05	-2.41E-05	-4.29E-05	8.48E-07	6.51E-06	7.36E-06	-2.54E-05	-6.26E-06	-3.16E-05	-2.33E-05	-1.22E-05	-3.54E-05	-4.13E-05	-1.71E-05	-5.85E-05	1.66E-05	9.17E-06	2.58E-05	2.06E-06	9.81E-06	1.19E-05	1.93E-05	1.09E-05	3.02E-05	0
-1.2	5.10E-06	5.18E-06	1.03E-05	-1.73E-05	-7.69E-06	-2.50E-05	-5.56E-18	-1.47E-18	-7.03E-18	-1.13E-05	-7.64E-06	-1.90E-05	-5.81E-06	2.30E-06	-3.51E-06	-1.36E-05	-9.97E-07	-1.46E-05	-3.19E-05	-6.48E-06	-3.84E-05	2.36E-06	4.18E-07	2.78E-06	-2.12E-05	-1.61E-06	-2.29E-05	-7.50E-07	2.06E-06	1.31E-06	-6.64E-06	1.65E-06	-4.99E-06	1.15E-06	-8.32E-07	3.22E-07	-1.33E-05	-5.38E-06	-1.87E-05	-2.25E-18	1.26E-18	-9.90E-19	-1.21E-05	-1.15E-05	-2.36E-05	-1.14E-05	-2.10E-06	-1.35E-05	-3.36E-05	-1.25E-05	-4.61E-05	-3.48E-05	-1.08E-05	-4.56E-05	-2.60E-05	-2.03E-06	-2.80E-05	-1.80E-06	9.20E-07	-8.77E-07	-8.01E-06	5.39E-06	-2.62E-06	-1.46E-06	6.38E-06	4.91E-06	9.58E-06	4.83E-06	1.44E-05	1.04E-05	4.12E-06	1.45E-05	3.49E-18	5.28E-19	4.02E-18	-3.19E-06	-5.42E-06	-8.61E-06	-5.91E-07	-3.20E-06	-3.79E-06	-2.08E-06	-2.64E-06	-4.73E-06	4.22E-06	-3.20E-06	1.03E-06	2.59E-05	3.09E-06	2.90E-05	8.21E-06	-1.72E-06	6.49E-06	3.58E-05	5.81E-06	4.16E-05	1.45E-05	6.50E-06	2.10E-05	-3.28E-07	-5.34E-06	-5.67E-06	-1.04E-05	-3.24E-06	-1.37E-05	-3.57E-18	1.73E-18	-1.84E-18	-1.69E-05	-2.10E-05	-3.79E-05	1.11E-06	6.25E-06	7.36E-06	-2.32E-05	-5.42E-06	-2.86E-05	-1.96E-05	-1.06E-05	-3.02E-05	-3.64E-05	-1.52E-05	-5.16E-05	1.59E-05	8.44E-06	2.43E-05	2.54E-06	9.15E-06	1.17E-05	1.84E-05	1.02E-05	2.86E-05	0
-1.16	4.42E-06	5.07E-06	9.49E-06	-1.67E-05	-6.75E-06	-2.34E-05	-4.05E-18	-1.13E-18	-5.18E-18	-1.10E-05	-6.78E-06	-1.78E-05	-6.38E-06	2.90E-06	-3.48E-06	-1.35E-05	-3.42E-07	-1.38E-05	-2.87E-05	-5.62E-06	-3.43E-05	3.59E-06	3.48E-07	3.93E-06	-1.90E-05	-1.31E-06	-2.03E-05	1.28E-06	1.24E-06	2.52E-06	-5.80E-06	1.79E-06	-4.01E-06	7.95E-07	-6.96E-07	9.88E-08	-1.26E-05	-4.45E-06	-1.71E-05	-1.27E-18	1.08E-18	-1.95E-19	-1.19E-05	-1.06E-05	-2.26E-05	-1.14E-05	-1.24E-06	-1.26E-05	-3.16E-05	-1.07E-05	-4.23E-05	-3.30E-05	-9.48E-06	-4.25E-05	-2.54E-05	-1.52E-06	-2.69E-05	-1.32E-06	9.78E-07	-3.45E-07	-7.61E-06	5.35E-06	-2.26E-06	-8.61E-07	6.16E-06	5.30E-06	9.09E-06	4.39E-06	1.35E-05	9.45E-06	3.80E-06	1.32E-05	2.73E-18	4.06E-19	3.13E-18	-3.02E-06	-4.97E-06	-7.99E-06	-1.06E-06	-2.97E-06	-4.03E-06	-2.05E-06	-2.22E-06	-4.27E-06	4.24E-06	-2.87E-06	1.36E-06	2.45E-05	3.01E-06	2.75E-05	7.80E-06	-1.51E-06	6.29E-06	3.28E-05	5.88E-06	3.87E-05	1.31E-05	5.95E-06	1.90E-05	2.34E-07	-3.96E-06	-3.73E-06	-8.27E-06	-2.15E-06	-1.04E-05	-1.97E-18	1.17E-18	-7.97E-19	-1.49E-05	-1.78E-05	-3.28E-05	1.35E-06	5.94E-06	7.28E-06	-2.08E-05	-4.56E-06	-2.54E-05	-1.59E-05	-8.99E-06	-2.49E-05	-3.12E-05	-1.33E-05	-4.44E-05	1.50E-05	7.64E-06	2.27E-05	2.99E-06	8.40E-06	1.14E-05	1.73E-05	9.48E-06	2.68E-05	0
-1.12	3.73E-06	4.92E-06	8.65E-06	-1.59E-05	-5.78E-06	-2.16E-05	-2.51E-18	-7.82E-19	-3.29E-18	-1.06E-05	-5.88E-06	-1.65E-05	-6.85E-06	3.46E-06	-3.39E-06	-1.32E-05	2.92E-07	-1.29E-05	-2.53E-05	-4.74E-06	-3.00E-05	4.75E-06	2.74E-07	5.02E-06	-1.66E-05	-1.02E-06	-1.76E-05	3.27E-06	4.20E-07	3.69E-06	-4.92E-06	1.91E-06	-3.01E-06	4.37E-07	-5.57E-07	-1.21E-07	-1.18E-05	-3.50E-06	-1.53E-05	-2.83E-19	8.88E-19	6.05E-19	-1.17E-05	-9.63E-06	-2.13E-05	-1.12E-05	-3.89E-07	-1.16E-05	-2.93E-05	-8.87E-06	-3.81E-05	-3.09E-05	-8.11E-06	-3.90E-05	-2.45E-05	-1.03E-06	-2.55E-05	-8.51E-07	1.03E-06	1.77E-07	-7.15E-06	5.26E-06	-1.89E-06	-2.72E-07	5.89E-06	5.62E-06	8.54E-06	3.91E-06	1.24E-05	8.43E-06	3.43E-06	1.19E-05	1.94E-18	2.82E-19	2.22E-18	-2.84E-06	-4.49E-06	-7.33E-06	-1.49E-06	-2.72E-06	-4.21E-06	-2.00E-06	-1.79E-06	-3.79E-06	4.16E-06	-2.55E-06	1.61E-06	2.29E-05	2.91E-06	2.58E-05	7.30E-06	-1.30E-06	5.99E-06	2.96E-05	5.88E-06	3.55E-05	1.15E-05	5.36E-06	1.68E-05	7.95E-07	-2.56E-06	-1.76E-06	-6.07E-06	-1.07E-06	-7.14E-06	-3.52E-19	6.03E-19	2.51E-19	-1.29E-05	-1.45E-05	-2.73E-05	1.56E-06	5.56E-06	7.12E-06	-1.83E-05	-3.68E-06	-2.20E-05	-1.21E-05	-7.33E-06	-1.94E-05	-2.58E-05	-1.12E-05	-3.70E-05	1.40E-05	6.78E-06	2.08E-05	3.39E-06	7.58E-06	1.10E-05	1.61E-05	8.64E-06	2.48E-05	0
-1.08	3.04E-06	4.72E-06	7.76E-06	-1.49E-05	-4.76E-06	-1.96E-05	-9.46E-19	-4.26E-19	-1.37E-18	-1.01E-05	-4.95E-06	-1.50E-05	-7.22E-06	3.96E-06	-3.26E-06	-1.27E-05	9.04E-07	-1.18E-05	-2.16E-05	-3.84E-06	-2.54E-05	5.85E-06	1.99E-07	6.05E-06	-1.40E-05	-7.45E-07	-1.48E-05	5.20E-06	-3.99E-07	4.80E-06	-4.00E-06	2.01E-06	-1.99E-06	8.03E-08	-4.16E-07	-3.35E-07	-1.08E-05	-2.54E-06	-1.33E-05	7.10E-19	6.91E-19	1.40E-18	-1.13E-05	-8.54E-06	-1.98E-05	-1.09E-05	4.40E-07	-1.04E-05	-2.66E-05	-6.98E-06	-3.36E-05	-2.85E-05	-6.67E-06	-3.52E-05	-2.33E-05	-5.45E-07	-2.39E-05	-3.82E-07	1.07E-06	6.88E-07	-6.61E-06	5.10E-06	-1.50E-06	3.03E-07	5.57E-06	5.87E-06	7.92E-06	3.40E-06	1.13E-05	7.33E-06	3.02E-06	1.04E-05	1.14E-18	1.55E-19	1.29E-18	-2.65E-06	-3.98E-06	-6.63E-06	-1.91E-06	-2.45E-06	-4.35E-06	-1.93E-06	-1.36E-06	-3.29E-06	3.99E-06	-2.21E-06	1.78E-06	2.11E-05	2.77E-06	2.39E-05	6.71E-06	-1.09E-06	5.62E-06	2.61E-05	5.81E-06	3.19E-05	9.82E-06	4.71E-06	1.45E-05	1.35E-06	-1.14E-06	2.16E-07	-3.84E-06	-2.78E-09	-3.85E-06	1.27E-18	2.54E-20	1.30E-18	-1.07E-05	-1.10E-05	-2.17E-05	1.76E-06	5.12E-06	6.88E-06	-1.57E-05	-2.79E-06	-1.85E-05	-8.29E-06	-5.63E-06	-1.39E-05	-2.02E-05	-9.05E-06	-2.92E-05	1.28E-05	5.85E-06	1.87E-05	3.75E-06	6.68E-06	1.04E-05	1.48E-05	7.71E-06	2.25E-05	0
-1.04	2.33E-06	4.48E-06	6.81E-06	-1.37E-05	-3.71E-06	-1.74E-05	6.32E-19	-6.39E-20	5.68E-19	-9.46E-06	-3.97E-06	-1.34E-05	-7.50E-06	4.41E-06	-3.09E-06	-1.21E-05	1.50E-06	-1.06E-05	-1.77E-05	-2.92E-06	-2.07E-05	6.88E-06	1.22E-07	7.00E-06	-1.13E-05	-4.70E-07	-1.18E-05	7.07E-06	-1.21E-06	5.86E-06	-3.04E-06	2.07E-06	-9.68E-07	-2.74E-07	-2.71E-07	-5.44E-07	-9.72E-06	-1.56E-06	-1.13E-05	1.70E-18	4.86E-19	2.19E-18	-1.07E-05	-7.36E-06	-1.81E-05	-1.04E-05	1.25E-06	-9.17E-06	-2.37E-05	-5.03E-06	-2.87E-05	-2.58E-05	-5.18E-06	-3.09E-05	-2.20E-05	-6.85E-08	-2.20E-05	8.36E-08	1.10E-06	1.19E-06	-5.99E-06	4.89E-06	-1.10E-06	8.65E-07	5.18E-06	6.05E-06	7.24E-06	2.87E-06	1.01E-05	6.15E-06	2.58E-06	8.73E-06	3.20E-19	2.60E-20	3.46E-19	-2.44E-06	-3.45E-06	-5.88E-06	-2.29E-06	-2.15E-06	-4.44E-06	-1.85E-06	-9.15E-07	-2.76E-06	3.75E-06	-1.86E-06	1.89E-06	1.91E-05	2.61E-06	2.17E-05	6.05E-06	-8.80E-07	5.17E-06	2.24E-05	5.69E-06	2.81E-05	8.06E-06	4.02E-06	1.21E-05	1.90E-06	2.99E-07	2.20E-06	-1.59E-06	1.05E-06	-5.40E-07	2.89E-18	-5.55E-19	2.33E-18	-8.38E-06	-7.47E-06	-1.59E-05	1.94E-06	4.63E-06	6.56E-06	-1.29E-05	-1.89E-06	-1.48E-05	-4.43E-06	-3.88E-06	-8.32E-06	-1.44E-05	-6.80E-06	-2.12E-05	1.15E-05	4.86E-06	1.64E-05	4.07E-06	5.71E-06	9.77E-06	1.33E-05	6.70E-06	2.00E-05	0
-1	1.61E-06	4.18E-06	5.79E-06	-1.24E-05	-2.62E-06	-1.51E-05	2.21E-18	3.01E-19	2.51E-18	-8.73E-06	-2.96E-06	-1.17E-05	-7.69E-06	4.81E-06	-2.88E-06	-1.14E-05	2.06E-06	-9.30E-06	-1.37E-05	-1.97E-06	-1.56E-05	7.84E-06	4.52E-08	7.88E-06	-8.52E-06	-1.96E-07	-8.72E-06	8.87E-06	-2.01E-06	6.86E-06	-2.05E-06	2.12E-06	6.91E-08	-6.24E-07	-1.24E-07	-7.47E-07	-8.53E-06	-5.58E-07	-9.08E-06	2.68E-18	2.75E-19	2.96E-18	-1.01E-05	-6.11E-06	-1.62E-05	-9.85E-06	2.04E-06	-7.81E-06	-2.05E-05	-3.02E-06	-2.35E-05	-2.27E-05	-3.63E-06	-2.64E-05	-2.03E-05	4.01E-07	-1.99E-05	5.47E-07	1.13E-06	1.67E-06	-5.31E-06	4.62E-06	-6.89E-07	1.42E-06	4.74E-06	6.16E-06	6.48E-06	2.31E-06	8.79E-06	4.89E-06	2.11E-06	7.00E-06	-5.05E-19	-1.04E-19	-6.09E-19	-2.21E-06	-2.88E-06	-5.09E-06	-2.65E-06	-1.83E-06	-4.47E-06	-1.75E-06	-4.67E-07	-2.22E-06	3.44E-06	-1.50E-06	1.94E-06	1.69E-05	2.41E-06	1.93E-05	5.32E-06	-6.61E-07	4.66E-06	1.84E-05	5.50E-06	2.39E-05	6.21E-06	3.28E-06	9.50E-06	2.43E-06	1.73E-06	4.16E-06	6.80E-07	2.09E-06	2.77E-06	4.48E-18	-1.13E-18	3.35E-18	-6.00E-06	-3.83E-06	-9.83E-06	2.09E-06	4.08E-06	6.16E-06	-9.98E-06	-9.73E-07	-1.10E-05	-5.43E-07	-2.10E-06	-2.65E-06	-8.50E-06	-4.49E-06	-1.30E-05	1.01E-05	3.82E-06	1.39E-05	4.33E-06	4.67E-06	9.00E-06	1.17E-05	5.60E-06	1.73E-05	0
-0.96	8.72E-07	3.84E-06	4.71E-06	-1.10E-05	-1.50E-06	-1.25E-05	3.78E-18	6.66E-19	4.45E-18	-7.89E-06	-1.92E-06	-9.81E-06	-7.79E-06	5.15E-06	-2.64E-06	-1.05E-05	2.61E-06	-7.89E-06	-9.45E-06	-9.98E-07	-1.04E-05	8.71E-06	-3.19E-08	8.68E-06	-5.60E-06	8.02E-08	-5.52E-06	1.06E-05	-2.79E-06	7.79E-06	-1.03E-06	2.14E-06	1.11E-06	-9.69E-07	2.64E-08	-9.43E-07	-7.22E-06	4.50E-07	-6.77E-06	3.64E-18	5.89E-20	3.70E-18	-9.33E-06	-4.78E-06	-1.41E-05	-9.17E-06	2.81E-06	-6.35E-06	-1.71E-05	-9.74E-07	-1.80E-05	-1.95E-05	-2.04E-06	-2.15E-05	-1.85E-05	8.66E-07	-1.76E-05	1.01E-06	1.14E-06	2.15E-06	-4.56E-06	4.30E-06	-2.64E-07	1.95E-06	4.25E-06	6.20E-06	5.66E-06	1.72E-06	7.38E-06	3.56E-06	1.61E-06	5.17E-06	-1.33E-18	-2.33E-19	-1.57E-18	-1.96E-06	-2.28E-06	-4.24E-06	-2.98E-06	-1.48E-06	-4.46E-06	-1.63E-06	-1.19E-08	-1.64E-06	3.09E-06	-1.13E-06	1.96E-06	1.45E-05	2.19E-06	1.67E-05	4.52E-06	-4.36E-07	4.08E-06	1.42E-05	5.25E-06	1.95E-05	4.29E-06	2.51E-06	6.79E-06	2.94E-06	3.16E-06	6.10E-06	2.96E-06	3.10E-06	6.06E-06	6.04E-18	-1.70E-18	4.34E-18	-3.53E-06	-1.26E-07	-3.66E-06	2.21E-06	3.48E-06	5.69E-06	-6.95E-06	-4.22E-08	-6.99E-06	3.37E-06	-2.91E-07	3.08E-06	-2.46E-06	-2.11E-06	-4.56E-06	8.56E-06	2.72E-06	1.13E-05	4.54E-06	3.57E-06	8.11E-06	9.87E-06	4.44E-06	1.43E-05	0
-0.92	1.15E-07	3.45E-06	3.57E-06	-9.40E-06	-3.43E-07	-9.74E-06	5.33E-18	1.03E-18	6.36E-18	-6.95E-06	-8.34E-07	-7.79E-06	-7.81E-06	5.45E-06	-2.36E-06	-9.50E-06	3.14E-06	-6.36E-06	-5.06E-06	-1.12E-09	-5.06E-06	9.51E-06	-1.08E-07	9.40E-06	-2.57E-06	3.61E-07	-2.21E-06	1.22E-05	-3.55E-06	8.64E-06	2.45E-08	2.13E-06	2.16E-06	-1.31E-06	1.79E-07	-1.13E-06	-5.82E-06	1.47E-06	-4.35E-06	4.57E-18	-1.60E-19	4.41E-18	-8.45E-06	-3.37E-06	-1.18E-05	-8.37E-06	3.57E-06	-4.80E-06	-1.34E-05	1.12E-06	-1.23E-05	-1.59E-05	-3.98E-07	-1.63E-05	-1.64E-05	1.33E-06	-1.50E-05	1.47E-06	1.14E-06	2.60E-06	-3.75E-06	3.93E-06	1.72E-07	2.48E-06	3.70E-06	6.18E-06	4.76E-06	1.10E-06	5.87E-06	2.18E-06	1.08E-06	3.26E-06	-2.16E-18	-3.62E-19	-2.52E-18	-1.69E-06	-1.65E-06	-3.34E-06	-3.28E-06	-1.12E-06	-4.40E-06	-1.50E-06	4.49E-07	-1.05E-06	2.69E-06	-7.33E-07	1.96E-06	1.19E-05	1.94E-06	1.39E-05	3.65E-06	-2.03E-07	3.45E-06	9.79E-06	4.94E-06	1.47E-05	2.29E-06	1.69E-06	3.97E-06	3.42E-06	4.58E-06	8.00E-06	5.23E-06	4.10E-06	9.34E-06	7.54E-18	-2.26E-18	5.28E-18	-9.88E-07	3.64E-06	2.65E-06	2.32E-06	2.83E-06	5.15E-06	-3.80E-06	9.03E-07	-2.90E-06	7.31E-06	1.55E-06	8.86E-06	3.70E-06	3.32E-07	4.03E-06	6.88E-06	1.57E-06	8.46E-06	4.71E-06	2.41E-06	7.12E-06	7.95E-06	3.21E-06	1.12E-05	0
-0.88	-6.64E-07	3.02E-06	2.35E-06	-7.68E-06	8.44E-07	-6.83E-06	6.84E-18	1.39E-18	8.22E-18	-5.92E-06	2.83E-07	-5.64E-06	-7.74E-06	5.69E-06	-2.05E-06	-8.38E-06	3.64E-06	-4.73E-06	-5.26E-07	1.02E-06	4.98E-07	1.02E-05	-1.82E-07	1.00E-05	5.45E-07	6.50E-07	1.20E-06	1.37E-05	-4.29E-06	9.42E-06	1.10E-06	2.11E-06	3.20E-06	-1.64E-06	3.33E-07	-1.31E-06	-4.33E-06	2.49E-06	-1.84E-06	5.45E-18	-3.81E-19	5.07E-18	-7.46E-06	-1.90E-06	-9.36E-06	-7.47E-06	4.30E-06	-3.17E-06	-9.47E-06	3.24E-06	-6.23E-06	-1.21E-05	1.28E-06	-1.08E-05	-1.40E-05	1.79E-06	-1.23E-05	1.93E-06	1.12E-06	3.05E-06	-2.88E-06	3.50E-06	6.19E-07	3.00E-06	3.09E-06	6.09E-06	3.79E-06	4.64E-07	4.25E-06	7.45E-07	5.31E-07	1.28E-06	-2.97E-18	-4.89E-19	-3.46E-18	-1.38E-06	-9.87E-07	-2.37E-06	-3.56E-06	-7.32E-07	-4.29E-06	-1.34E-06	9.16E-07	-4.24E-07	2.27E-06	-3.20E-07	1.95E-06	9.17E-06	1.66E-06	1.08E-05	2.73E-06	4.07E-08	2.77E-06	5.17E-06	4.56E-06	9.73E-06	2.15E-07	8.35E-07	1.05E-06	3.87E-06	5.97E-06	9.84E-06	7.50E-06	5.08E-06	1.26E-05	8.98E-18	-2.80E-18	6.18E-18	1.62E-06	7.44E-06	9.05E-06	2.40E-06	2.14E-06	4.54E-06	-5.35E-07	1.86E-06	1.33E-06	1.13E-05	3.42E-06	1.47E-05	9.95E-06	2.82E-06	1.28E-05	5.10E-06	3.89E-07	5.48E-06	4.82E-06	1.20E-06	6.02E-06	5.89E-06	1.92E-06	7.81E-06	0
-0.84	-1.47E-06	2.53E-06	1.07E-06	-5.83E-06	2.06E-06	-3.77E-06	8.30E-18	1.73E-18	1.00E-17	-4.80E-06	1.43E-06	-3.37E-06	-7.60E-06	5.88E-06	-1.71E-06	-7.14E-06	4.13E-06	-3.01E-06	4.13E-06	2.08E-06	6.21E-06	1.08E-05	-2.54E-07	1.06E-05	3.74E-06	9.50E-07	4.69E-06	1.51E-05	-4.99E-06	1.01E-05	2.19E-06	2.06E-06	4.25E-06	-1.97E-06	4.89E-07	-1.48E-06	-2.76E-06	3.52E-06	7.68E-07	6.29E-18	-6.03E-19	5.69E-18	-6.37E-06	-3.69E-07	-6.74E-06	-6.47E-06	5.01E-06	-1.45E-06	-5.37E-06	5.39E-06	2.38E-08	-8.08E-06	3.00E-06	-5.09E-06	-1.15E-05	2.25E-06	-9.27E-06	2.39E-06	1.09E-06	3.48E-06	-1.95E-06	3.03E-06	1.08E-06	3.51E-06	2.44E-06	5.95E-06	2.74E-06	-2.02E-07	2.54E-06	-7.31E-07	-3.26E-08	-7.63E-07	-3.76E-18	-6.13E-19	-4.37E-18	-1.05E-06	-2.88E-07	-1.34E-06	-3.80E-06	-3.30E-07	-4.13E-06	-1.16E-06	1.39E-06	2.25E-07	1.83E-06	1.16E-07	1.95E-06	6.21E-06	1.36E-06	7.57E-06	1.76E-06	2.96E-07	2.06E-06	3.50E-07	4.14E-06	4.49E-06	-1.92E-06	-5.03E-08	-1.97E-06	4.28E-06	7.32E-06	1.16E-05	9.76E-06	6.04E-06	1.58E-05	1.03E-17	-3.31E-18	7.02E-18	4.28E-06	1.13E-05	1.55E-05	2.45E-06	1.41E-06	3.86E-06	2.83E-06	2.83E-06	5.67E-06	1.52E-05	5.30E-06	2.05E-05	1.63E-05	5.34E-06	2.16E-05	3.20E-06	-8.33E-07	2.37E-06	4.87E-06	-4.82E-08	4.83E-06	3.71E-06	5.79E-07	4.29E-06	0
-0.8	-2.30E-06	2.01E-06	-2.99E-07	-3.86E-06	3.30E-06	-5.61E-07	9.71E-18	2.07E-18	1.18E-17	-3.60E-06	2.62E-06	-9.83E-07	-7.38E-06	6.03E-06	-1.35E-06	-5.80E-06	4.59E-06	-1.20E-06	8.89E-06	3.16E-06	1.21E-05	1.13E-05	-3.23E-07	1.10E-05	6.99E-06	1.27E-06	8.26E-06	1.64E-05	-5.65E-06	1.07E-05	3.29E-06	1.99E-06	5.28E-06	-2.28E-06	6.47E-07	-1.63E-06	-1.11E-06	4.56E-06	3.44E-06	7.07E-18	-8.23E-19	6.25E-18	-5.19E-06	1.22E-06	-3.97E-06	-5.38E-06	5.71E-06	3.30E-07	-1.10E-06	7.56E-06	6.46E-06	-3.86E-06	4.74E-06	8.81E-07	-8.77E-06	2.71E-06	-6.06E-06	2.84E-06	1.04E-06	3.89E-06	-9.75E-07	2.52E-06	1.54E-06	4.02E-06	1.73E-06	5.74E-06	1.61E-06	-8.91E-07	7.17E-07	-2.24E-06	-6.07E-07	-2.85E-06	-4.53E-18	-7.33E-19	-5.27E-18	-6.89E-07	4.48E-07	-2.41E-07	-4.02E-06	8.95E-08	-3.94E-06	-9.67E-07	1.87E-06	9.02E-07	1.40E-06	5.78E-07	1.98E-06	3.06E-06	1.04E-06	4.10E-06	7.54E-07	5.65E-07	1.32E-06	-4.64E-06	3.65E-06	-9.91E-07	-4.12E-06	-9.63E-07	-5.08E-06	4.66E-06	8.64E-06	1.33E-05	1.20E-05	6.97E-06	1.89E-05	1.16E-17	-3.80E-18	7.80E-18	6.98E-06	1.51E-05	2.21E-05	2.48E-06	6.47E-07	3.13E-06	6.30E-06	3.82E-06	1.01E-05	1.91E-05	7.20E-06	2.63E-05	2.26E-05	7.88E-06	3.05E-05	1.21E-06	-2.08E-06	-8.75E-07	4.88E-06	-1.33E-06	3.54E-06	1.40E-06	-8.07E-07	5.98E-07	0
-0.76	-3.17E-06	1.43E-06	-1.74E-06	-1.79E-06	4.56E-06	2.78E-06	1.10E-17	2.39E-18	1.34E-17	-2.32E-06	3.83E-06	1.51E-06	-7.10E-06	6.12E-06	-9.78E-07	-4.35E-06	5.04E-06	6.90E-07	1.37E-05	4.27E-06	1.80E-05	1.18E-05	-3.88E-07	1.14E-05	1.03E-05	1.60E-06	1.19E-05	1.75E-05	-6.27E-06	1.12E-05	4.40E-06	1.91E-06	6.31E-06	-2.59E-06	8.07E-07	-1.78E-06	5.92E-07	5.59E-06	6.18E-06	7.79E-18	-1.04E-18	6.75E-18	-3.92E-06	2.85E-06	-1.07E-06	-4.21E-06	6.39E-06	2.17E-06	3.32E-06	9.75E-06	1.31E-05	5.50E-07	6.51E-06	7.05E-06	-5.84E-06	3.18E-06	-2.66E-06	3.30E-06	9.82E-07	4.28E-06	4.98E-08	1.96E-06	2.01E-06	4.51E-06	9.69E-07	5.48E-06	3.98E-07	-1.60E-06	-1.21E-06	-3.77E-06	-1.19E-06	-4.96E-06	-5.27E-18	-8.49E-19	-6.12E-18	-2.88E-07	1.22E-06	9.32E-07	-4.22E-06	5.24E-07	-3.69E-06	-7.49E-07	2.35E-06	1.61E-06	9.86E-07	1.07E-06	2.05E-06	-2.64E-07	6.88E-07	4.24E-07	-2.88E-07	8.49E-07	5.60E-07	-9.79E-06	3.11E-06	-6.68E-06	-6.36E-06	-1.90E-06	-8.26E-06	4.98E-06	9.89E-06	1.49E-05	1.42E-05	7.88E-06	2.21E-05	1.27E-17	-4.25E-18	8.50E-18	9.71E-06	1.89E-05	2.86E-05	2.48E-06	-1.45E-07	2.34E-06	9.85E-06	4.81E-06	1.47E-05	2.31E-05	9.11E-06	3.22E-05	2.90E-05	1.04E-05	3.94E-05	-8.71E-07	-3.36E-06	-4.23E-06	4.83E-06	-2.65E-06	2.18E-06	-1.01E-06	-2.23E-06	-3.24E-06	0
-0.72	-4.08E-06	8.11E-07	-3.27E-06	3.83E-07	5.85E-06	6.23E-06	1.23E-17	2.70E-18	1.50E-17	-9.65E-07	5.08E-06	4.11E-06	-6.76E-06	6.17E-06	-5.87E-07	-2.82E-06	5.47E-06	2.65E-06	1.87E-05	5.41E-06	2.41E-05	1.21E-05	-4.50E-07	1.16E-05	1.36E-05	1.96E-06	1.56E-05	1.85E-05	-6.85E-06	1.16E-05	5.52E-06	1.80E-06	7.32E-06	-2.88E-06	9.67E-07	-1.91E-06	2.34E-06	6.62E-06	8.96E-06	8.42E-18	-1.25E-18	7.17E-18	-2.58E-06	4.52E-06	1.94E-06	-2.98E-06	7.05E-06	4.07E-06	7.85E-06	1.19E-05	1.98E-05	5.12E-06	8.29E-06	1.34E-05	-2.72E-06	3.66E-06	9.35E-07	3.76E-06	9.03E-07	4.66E-06	1.12E-06	1.37E-06	2.49E-06	5.00E-06	1.65E-07	5.16E-06	-8.93E-07	-2.34E-06	-3.23E-06	-5.31E-06	-1.77E-06	-7.08E-06	-5.98E-18	-9.59E-19	-6.94E-18	1.52E-07	2.03E-06	2.18E-06	-4.39E-06	9.72E-07	-3.41E-06	-5.07E-07	2.85E-06	2.34E-06	6.06E-07	1.59E-06	2.19E-06	-3.76E-06	3.18E-07	-3.44E-06	-1.35E-06	1.15E-06	-2.06E-07	-1.51E-05	2.52E-06	-1.26E-05	-8.65E-06	-2.86E-06	-1.15E-05	5.25E-06	1.11E-05	1.63E-05	1.63E-05	8.76E-06	2.51E-05	1.38E-17	-4.66E-18	9.11E-18	1.25E-05	2.27E-05	3.51E-05	2.47E-06	-9.60E-07	1.51E-06	1.35E-05	5.82E-06	1.93E-05	2.70E-05	1.10E-05	3.80E-05	3.53E-05	1.30E-05	4.83E-05	-3.03E-06	-4.65E-06	-7.69E-06	4.72E-06	-3.99E-06	7.38E-07	-3.53E-06	-3.68E-06	-7.21E-06	0
-0.68	-5.02E-06	1.48E-07	-4.87E-06	2.64E-06	7.15E-06	9.78E-06	1.34E-17	2.99E-18	1.64E-17	4.55E-07	6.35E-06	6.81E-06	-6.36E-06	6.18E-06	-1.87E-07	-1.20E-06	5.88E-06	4.68E-06	2.36E-05	6.59E-06	3.02E-05	1.23E-05	-5.06E-07	1.18E-05	1.70E-05	2.34E-06	1.93E-05	1.93E-05	-7.37E-06	1.19E-05	6.63E-06	1.69E-06	8.32E-06	-3.16E-06	1.13E-06	-2.03E-06	4.13E-06	7.65E-06	1.18E-05	8.97E-18	-1.46E-18	7.51E-18	-1.17E-06	6.23E-06	5.06E-06	-1.68E-06	7.69E-06	6.01E-06	1.25E-05	1.41E-05	2.66E-05	9.82E-06	1.01E-05	1.99E-05	5.64E-07	4.14E-06	4.71E-06	4.21E-06	8.05E-07	5.01E-06	2.22E-06	7.48E-07	2.97E-06	5.48E-06	-6.83E-07	4.80E-06	-2.27E-06	-3.10E-06	-5.36E-06	-6.86E-06	-2.35E-06	-9.21E-06	-6.64E-18	-1.06E-18	-7.70E-18	6.35E-07	2.88E-06	3.52E-06	-4.53E-06	1.43E-06	-3.10E-06	-2.43E-07	3.34E-06	3.10E-06	2.75E-07	2.14E-06	2.41E-06	-7.42E-06	-7.15E-08	-7.49E-06	-2.44E-06	1.47E-06	-9.69E-07	-2.05E-05	1.89E-06	-1.86E-05	-1.10E-05	-3.83E-06	-1.48E-05	5.46E-06	1.22E-05	1.77E-05	1.84E-05	9.62E-06	2.80E-05	1.47E-17	-5.03E-18	9.63E-18	1.52E-05	2.64E-05	4.16E-05	2.42E-06	-1.79E-06	6.30E-07	1.72E-05	6.84E-06	2.40E-05	3.08E-05	1.29E-05	4.38E-05	4.17E-05	1.56E-05	5.72E-05	-5.26E-06	-5.96E-06	-1.12E-05	4.57E-06	-5.34E-06	-7.64E-07	-6.14E-06	-5.15E-06	-1.13E-05	0
-0.64	-6.01E-06	-5.56E-07	-6.56E-06	4.97E-06	8.46E-06	1.34E-05	1.45E-17	3.25E-18	1.77E-17	1.93E-06	7.66E-06	9.59E-06	-5.92E-06	6.14E-06	2.18E-07	4.90E-07	6.28E-06	6.77E-06	2.86E-05	7.80E-06	3.64E-05	1.24E-05	-5.58E-07	1.18E-05	2.03E-05	2.75E-06	2.31E-05	2.00E-05	-7.84E-06	1.21E-05	7.74E-06	1.55E-06	9.29E-06	-3.43E-06	1.29E-06	-2.14E-06	5.95E-06	8.66E-06	1.46E-05	9.43E-18	-1.66E-18	7.77E-18	2.98E-07	7.97E-06	8.27E-06	-3.37E-07	8.32E-06	7.98E-06	1.71E-05	1.63E-05	3.34E-05	1.46E-05	1.19E-05	2.65E-05	4.00E-06	4.64E-06	8.65E-06	4.66E-06	6.88E-07	5.35E-06	3.35E-06	9.75E-08	3.45E-06	5.96E-06	-1.57E-06	4.39E-06	-3.72E-06	-3.87E-06	-7.60E-06	-8.39E-06	-2.92E-06	-1.13E-05	-7.25E-18	-1.16E-18	-8.41E-18	1.16E-06	3.77E-06	4.94E-06	-4.65E-06	1.90E-06	-2.74E-06	4.59E-08	3.85E-06	3.90E-06	8.50E-09	2.73E-06	2.73E-06	-1.12E-05	-4.79E-07	-1.17E-05	-3.53E-06	1.81E-06	-1.72E-06	-2.60E-05	1.20E-06	-2.48E-05	-1.33E-05	-4.81E-06	-1.82E-05	5.60E-06	1.33E-05	1.89E-05	2.05E-05	1.05E-05	3.09E-05	1.54E-17	-5.35E-18	1.00E-17	1.80E-05	3.00E-05	4.80E-05	2.36E-06	-2.64E-06	-2.81E-07	2.10E-05	7.88E-06	2.88E-05	3.47E-05	1.49E-05	4.95E-05	4.79E-05	1.81E-05	6.60E-05	-7.55E-06	-7.26E-06	-1.48E-05	4.37E-06	-6.69E-06	-2.32E-06	-8.84E-06	-6.62E-06	-1.55E-05	0
-0.6	-7.04E-06	-1.30E-06	-8.34E-06	7.35E-06	9.79E-06	1.71E-05	1.54E-17	3.49E-18	1.89E-17	3.47E-06	8.99E-06	1.25E-05	-5.44E-06	6.06E-06	6.22E-07	2.24E-06	6.66E-06	8.90E-06	3.36E-05	9.04E-06	4.27E-05	1.24E-05	-6.06E-07	1.18E-05	2.37E-05	3.18E-06	2.68E-05	2.05E-05	-8.26E-06	1.22E-05	8.84E-06	1.40E-06	1.02E-05	-3.69E-06	1.45E-06	-2.24E-06	7.78E-06	9.67E-06	1.75E-05	9.79E-18	-1.85E-18	7.94E-18	1.82E-06	9.73E-06	1.15E-05	1.04E-06	8.93E-06	9.98E-06	2.19E-05	1.85E-05	4.03E-05	1.95E-05	1.37E-05	3.32E-05	7.59E-06	5.16E-06	1.27E-05	5.11E-06	5.51E-07	5.66E-06	4.50E-06	-5.76E-07	3.93E-06	6.43E-06	-2.50E-06	3.93E-06	-5.26E-06	-4.67E-06	-9.93E-06	-9.91E-06	-3.47E-06	-1.34E-05	-7.81E-18	-1.25E-18	-9.05E-18	1.74E-06	4.71E-06	6.44E-06	-4.74E-06	2.38E-06	-2.36E-06	3.59E-07	4.36E-06	4.72E-06	-1.78E-07	3.35E-06	3.17E-06	-1.52E-05	-9.03E-07	-1.61E-05	-4.62E-06	2.17E-06	-2.45E-06	-3.16E-05	4.80E-07	-3.12E-05	-1.57E-05	-5.80E-06	-2.15E-05	5.68E-06	1.42E-05	1.99E-05	2.24E-05	1.13E-05	3.37E-05	1.60E-17	-5.61E-18	1.04E-17	2.07E-05	3.36E-05	5.43E-05	2.27E-06	-3.49E-06	-1.22E-06	2.48E-05	8.92E-06	3.37E-05	3.85E-05	1.68E-05	5.52E-05	5.41E-05	2.06E-05	7.47E-05	-9.89E-06	-8.57E-06	-1.85E-05	4.12E-06	-8.04E-06	-3.92E-06	-1.16E-05	-8.10E-06	-1.97E-05	0
-0.56	-8.12E-06	-2.08E-06	-1.02E-05	9.79E-06	1.11E-05	2.09E-05	1.62E-17	3.70E-18	1.99E-17	5.04E-06	1.03E-05	1.54E-05	-4.93E-06	5.95E-06	1.02E-06	4.04E-06	7.03E-06	1.11E-05	3.86E-05	1.03E-05	4.89E-05	1.23E-05	-6.48E-07	1.16E-05	2.70E-05	3.66E-06	3.06E-05	2.08E-05	-8.61E-06	1.22E-05	9.92E-06	1.25E-06	1.12E-05	-3.93E-06	1.61E-06	-2.32E-06	9.61E-06	1.07E-05	2.03E-05	1.00E-17	-2.03E-18	8.01E-18	3.38E-06	1.15E-05	1.49E-05	2.45E-06	9.53E-06	1.20E-05	2.66E-05	2.06E-05	4.72E-05	2.45E-05	1.55E-05	3.99E-05	1.13E-05	5.69E-06	1.70E-05	5.56E-06	3.95E-07	5.95E-06	5.67E-06	-1.27E-06	4.40E-06	6.90E-06	-3.46E-06	3.43E-06	-6.89E-06	-5.48E-06	-1.24E-05	-1.14E-05	-4.01E-06	-1.54E-05	-8.30E-18	-1.32E-18	-9.63E-18	2.36E-06	5.68E-06	8.04E-06	-4.81E-06	2.87E-06	-1.94E-06	6.97E-07	4.88E-06	5.57E-06	-2.68E-07	4.01E-06	3.75E-06	-1.93E-05	-1.34E-06	-2.06E-05	-5.69E-06	2.55E-06	-3.14E-06	-3.73E-05	-2.84E-07	-3.76E-05	-1.81E-05	-6.79E-06	-2.49E-05	5.69E-06	1.51E-05	2.08E-05	2.43E-05	1.20E-05	3.64E-05	1.64E-17	-5.82E-18	1.06E-17	2.34E-05	3.71E-05	6.05E-05	2.17E-06	-4.35E-06	-2.18E-06	2.86E-05	9.98E-06	3.86E-05	4.22E-05	1.87E-05	6.09E-05	6.02E-05	2.31E-05	8.32E-05	-1.23E-05	-9.86E-06	-2.21E-05	3.82E-06	-9.38E-06	-5.55E-06	-1.44E-05	-9.57E-06	-2.40E-05	0
-0.52	-9.25E-06	-2.90E-06	-1.22E-05	1.23E-05	1.25E-05	2.47E-05	1.68E-17	3.88E-18	2.07E-17	6.65E-06	1.17E-05	1.84E-05	-4.39E-06	5.80E-06	1.41E-06	5.89E-06	7.39E-06	1.33E-05	4.36E-05	1.16E-05	5.52E-05	1.20E-05	-6.87E-07	1.13E-05	3.02E-05	4.16E-06	3.44E-05	2.10E-05	-8.90E-06	1.21E-05	1.10E-05	1.08E-06	1.21E-05	-4.16E-06	1.77E-06	-2.38E-06	1.14E-05	1.16E-05	2.31E-05	1.02E-17	-2.20E-18	7.98E-18	4.96E-06	1.33E-05	1.82E-05	3.87E-06	1.01E-05	1.40E-05	3.13E-05	2.27E-05	5.40E-05	2.95E-05	1.72E-05	4.67E-05	1.51E-05	6.24E-06	2.13E-05	6.00E-06	2.18E-07	6.22E-06	6.85E-06	-1.98E-06	4.87E-06	7.36E-06	-4.46E-06	2.90E-06	-8.59E-06	-6.31E-06	-1.49E-05	-1.28E-05	-4.53E-06	-1.74E-05	-8.73E-18	-1.39E-18	-1.01E-17	3.04E-06	6.70E-06	9.74E-06	-4.86E-06	3.36E-06	-1.49E-06	1.06E-06	5.40E-06	6.46E-06	-2.49E-07	4.72E-06	4.47E-06	-2.35E-05	-1.79E-06	-2.53E-05	-6.75E-06	2.96E-06	-3.79E-06	-4.30E-05	-1.08E-06	-4.41E-05	-2.05E-05	-7.78E-06	-2.83E-05	5.62E-06	1.58E-05	2.15E-05	2.61E-05	1.28E-05	3.89E-05	1.66E-17	-5.97E-18	1.06E-17	2.61E-05	4.04E-05	6.65E-05	2.04E-06	-5.20E-06	-3.16E-06	3.25E-05	1.10E-05	4.35E-05	4.59E-05	2.05E-05	6.64E-05	6.61E-05	2.55E-05	9.16E-05	-1.47E-05	-1.11E-05	-2.58E-05	3.49E-06	-1.07E-05	-7.21E-06	-1.73E-05	-1.10E-05	-2.83E-05	0
-0.48	-1.04E-05	-3.76E-06	-1.42E-05	1.48E-05	1.38E-05	2.86E-05	1.73E-17	4.03E-18	2.14E-17	8.30E-06	1.31E-05	2.14E-05	-3.84E-06	5.62E-06	1.78E-06	7.76E-06	7.74E-06	1.55E-05	4.85E-05	1.30E-05	6.15E-05	1.17E-05	-7.21E-07	1.10E-05	3.35E-05	4.71E-06	3.82E-05	2.10E-05	-9.12E-06	1.19E-05	1.20E-05	9.06E-07	1.29E-05	-4.37E-06	1.93E-06	-2.44E-06	1.32E-05	1.26E-05	2.58E-05	1.02E-17	-2.35E-18	7.85E-18	6.58E-06	1.50E-05	2.16E-05	5.30E-06	1.07E-05	1.60E-05	3.59E-05	2.48E-05	6.07E-05	3.44E-05	1.90E-05	5.34E-05	1.90E-05	6.81E-06	2.58E-05	6.43E-06	1.93E-08	6.45E-06	8.03E-06	-2.70E-06	5.34E-06	7.81E-06	-5.48E-06	2.33E-06	-1.04E-05	-7.16E-06	-1.75E-05	-1.42E-05	-5.01E-06	-1.92E-05	-9.10E-18	-1.45E-18	-1.05E-17	3.77E-06	7.76E-06	1.15E-05	-4.88E-06	3.86E-06	-1.02E-06	1.45E-06	5.93E-06	7.38E-06	-1.06E-07	5.47E-06	5.36E-06	-2.79E-05	-2.25E-06	-3.01E-05	-7.78E-06	3.39E-06	-4.39E-06	-4.88E-05	-1.92E-06	-5.07E-05	-2.29E-05	-8.76E-06	-3.17E-05	5.48E-06	1.65E-05	2.20E-05	2.79E-05	1.35E-05	4.14E-05	1.67E-17	-6.06E-18	1.06E-17	2.87E-05	4.36E-05	7.23E-05	1.90E-06	-6.04E-06	-4.14E-06	3.64E-05	1.21E-05	4.85E-05	4.95E-05	2.24E-05	7.19E-05	7.19E-05	2.78E-05	9.97E-05	-1.71E-05	-1.24E-05	-2.94E-05	3.11E-06	-1.20E-05	-8.87E-06	-2.02E-05	-1.24E-05	-3.27E-05	0
-0.44	-1.17E-05	-4.64E-06	-1.63E-05	1.73E-05	1.52E-05	3.24E-05	1.77E-17	4.14E-18	2.18E-17	9.97E-06	1.45E-05	2.45E-05	-3.28E-06	5.42E-06	2.14E-06	9.66E-06	8.08E-06	1.77E-05	5.34E-05	1.43E-05	6.77E-05	1.12E-05	-7.52E-07	1.05E-05	3.66E-05	5.29E-06	4.19E-05	2.08E-05	-9.28E-06	1.15E-05	1.30E-05	7.25E-07	1.37E-05	-4.56E-06	2.09E-06	-2.47E-06	1.50E-05	1.36E-05	2.85E-05	1.01E-17	-2.49E-18	7.60E-18	8.20E-06	1.68E-05	2.50E-05	6.72E-06	1.13E-05	1.80E-05	4.05E-05	2.68E-05	6.73E-05	3.94E-05	2.07E-05	6.01E-05	2.30E-05	7.41E-06	3.04E-05	6.86E-06	-2.00E-07	6.66E-06	9.21E-06	-3.42E-06	5.79E-06	8.25E-06	-6.52E-06	1.73E-06	-1.23E-05	-8.02E-06	-2.03E-05	-1.56E-05	-5.46E-06	-2.10E-05	-9.39E-18	-1.50E-18	-1.09E-17	4.56E-06	8.87E-06	1.34E-05	-4.89E-06	4.35E-06	-5.32E-07	1.87E-06	6.47E-06	8.33E-06	1.74E-07	6.26E-06	6.43E-06	-3.23E-05	-2.72E-06	-3.50E-05	-8.78E-06	3.85E-06	-4.93E-06	-5.45E-05	-2.78E-06	-5.73E-05	-2.53E-05	-9.73E-06	-3.51E-05	5.25E-06	1.70E-05	2.23E-05	2.95E-05	1.42E-05	4.37E-05	1.65E-17	-6.09E-18	1.04E-17	3.12E-05	4.67E-05	7.78E-05	1.75E-06	-6.87E-06	-5.12E-06	4.03E-05	1.32E-05	5.35E-05	5.30E-05	2.42E-05	7.73E-05	7.75E-05	3.01E-05	0.000107654	-1.95E-05	-1.36E-05	-3.31E-05	2.71E-06	-1.32E-05	-1.05E-05	-2.32E-05	-1.38E-05	-3.70E-05	0
-0.4	-1.30E-05	-5.56E-06	-1.85E-05	1.98E-05	1.65E-05	3.63E-05	1.79E-17	4.22E-18	2.21E-17	1.16E-05	1.60E-05	2.76E-05	-2.71E-06	5.18E-06	2.47E-06	1.16E-05	8.42E-06	2.00E-05	5.82E-05	1.57E-05	7.39E-05	1.06E-05	-7.80E-07	9.87E-06	3.97E-05	5.91E-06	4.56E-05	2.04E-05	-9.37E-06	1.10E-05	1.40E-05	5.39E-07	1.45E-05	-4.74E-06	2.24E-06	-2.50E-06	1.67E-05	1.45E-05	3.12E-05	9.87E-18	-2.62E-18	7.25E-18	9.82E-06	1.86E-05	2.84E-05	8.12E-06	1.18E-05	1.99E-05	4.49E-05	2.87E-05	7.37E-05	4.44E-05	2.24E-05	6.68E-05	2.71E-05	8.03E-06	3.51E-05	7.28E-06	-4.40E-07	6.84E-06	1.04E-05	-4.15E-06	6.23E-06	8.69E-06	-7.58E-06	1.10E-06	-1.42E-05	-8.89E-06	-2.31E-05	-1.68E-05	-5.88E-06	-2.27E-05	-9.60E-18	-1.53E-18	-1.11E-17	5.41E-06	1.00E-05	1.54E-05	-4.87E-06	4.85E-06	-1.84E-08	2.31E-06	7.01E-06	9.32E-06	6.03E-07	7.10E-06	7.70E-06	-3.69E-05	-3.20E-06	-4.01E-05	-9.73E-06	4.33E-06	-5.40E-06	-6.03E-05	-3.67E-06	-6.40E-05	-2.77E-05	-1.07E-05	-3.84E-05	4.95E-06	1.74E-05	2.24E-05	3.10E-05	1.49E-05	4.59E-05	1.62E-17	-6.05E-18	1.01E-17	3.37E-05	4.95E-05	8.32E-05	1.58E-06	-7.67E-06	-6.09E-06	4.42E-05	1.43E-05	5.85E-05	5.65E-05	2.60E-05	8.26E-05	8.30E-05	3.23E-05	0.000115296	-2.18E-05	-1.48E-05	-3.66E-05	2.27E-06	-1.44E-05	-1.22E-05	-2.61E-05	-1.52E-05	-4.13E-05	0
-0.36	-1.43E-05	-6.50E-06	-2.08E-05	2.23E-05	1.78E-05	4.01E-05	1.79E-17	4.27E-18	2.22E-17	1.33E-05	1.74E-05	3.08E-05	-2.15E-06	4.93E-06	2.77E-06	1.35E-05	8.75E-06	2.22E-05	6.29E-05	1.72E-05	8.01E-05	9.96E-06	-8.07E-07	9.15E-06	4.27E-05	6.57E-06	4.93E-05	1.99E-05	-9.40E-06	1.05E-05	1.49E-05	3.51E-07	1.53E-05	-4.90E-06	2.39E-06	-2.51E-06	1.84E-05	1.54E-05	3.38E-05	9.52E-18	-2.73E-18	6.80E-18	1.14E-05	2.03E-05	3.17E-05	9.49E-06	1.23E-05	2.18E-05	4.93E-05	3.07E-05	7.99E-05	4.92E-05	2.41E-05	7.33E-05	3.11E-05	8.68E-06	3.98E-05	7.69E-06	-7.01E-07	6.99E-06	1.15E-05	-4.87E-06	6.66E-06	9.11E-06	-8.66E-06	4.49E-07	-1.62E-05	-9.78E-06	-2.60E-05	-1.80E-05	-6.26E-06	-2.43E-05	-9.73E-18	-1.55E-18	-1.13E-17	6.32E-06	1.12E-05	1.75E-05	-4.84E-06	5.35E-06	5.13E-07	2.78E-06	7.56E-06	1.03E-05	1.19E-06	7.98E-06	9.17E-06	-4.15E-05	-3.68E-06	-4.52E-05	-1.06E-05	4.84E-06	-5.79E-06	-6.60E-05	-4.58E-06	-7.06E-05	-3.01E-05	-1.16E-05	-4.17E-05	4.56E-06	1.77E-05	2.23E-05	3.25E-05	1.55E-05	4.80E-05	1.56E-17	-5.94E-18	9.71E-18	3.60E-05	5.22E-05	8.82E-05	1.40E-06	-8.45E-06	-7.05E-06	4.82E-05	1.54E-05	6.36E-05	5.99E-05	2.78E-05	8.77E-05	8.82E-05	3.44E-05	0.000122646	-2.42E-05	-1.59E-05	-4.01E-05	1.82E-06	-1.56E-05	-1.38E-05	-2.91E-05	-1.64E-05	-4.55E-05	0
-0.32	-1.58E-05	-7.46E-06	-2.32E-05	2.48E-05	1.92E-05	4.39E-05	1.78E-17	4.27E-18	2.21E-17	1.50E-05	1.89E-05	3.39E-05	-1.61E-06	4.65E-06	3.04E-06	1.54E-05	9.07E-06	2.44E-05	6.75E-05	1.86E-05	8.62E-05	9.17E-06	-8.34E-07	8.33E-06	4.56E-05	7.27E-06	5.28E-05	1.91E-05	-9.36E-06	9.77E-06	1.58E-05	1.62E-07	1.60E-05	-5.05E-06	2.54E-06	-2.51E-06	2.00E-05	1.63E-05	3.62E-05	9.05E-18	-2.82E-18	6.23E-18	1.30E-05	2.20E-05	3.50E-05	1.08E-05	1.29E-05	2.37E-05	5.34E-05	3.25E-05	8.59E-05	5.40E-05	2.57E-05	7.97E-05	3.53E-05	9.36E-06	4.46E-05	8.09E-06	-9.84E-07	7.10E-06	1.26E-05	-5.58E-06	7.06E-06	9.52E-06	-9.75E-06	-2.29E-07	-1.83E-05	-1.07E-05	-2.90E-05	-1.91E-05	-6.59E-06	-2.57E-05	-9.79E-18	-1.57E-18	-1.14E-17	7.29E-06	1.25E-05	1.97E-05	-4.79E-06	5.85E-06	1.06E-06	3.28E-06	8.12E-06	1.14E-05	1.95E-06	8.91E-06	1.09E-05	-4.62E-05	-4.17E-06	-5.03E-05	-1.15E-05	5.37E-06	-6.09E-06	-7.17E-05	-5.51E-06	-7.72E-05	-3.24E-05	-1.25E-05	-4.49E-05	4.08E-06	1.79E-05	2.20E-05	3.38E-05	1.61E-05	4.99E-05	1.49E-17	-5.77E-18	9.16E-18	3.83E-05	5.47E-05	9.30E-05	1.21E-06	-9.20E-06	-7.99E-06	5.20E-05	1.65E-05	6.86E-05	6.32E-05	2.96E-05	9.28E-05	9.32E-05	3.65E-05	0.000129684	-2.65E-05	-1.70E-05	-4.35E-05	1.34E-06	-1.67E-05	-1.53E-05	-3.20E-05	-1.77E-05	-4.97E-05	0
-0.28	-1.72E-05	-8.45E-06	-2.57E-05	2.72E-05	2.05E-05	4.77E-05	1.75E-17	4.24E-18	2.17E-17	1.67E-05	2.04E-05	3.71E-05	-1.08E-06	4.36E-06	3.27E-06	1.72E-05	9.40E-06	2.66E-05	7.21E-05	2.01E-05	9.22E-05	8.27E-06	-8.62E-07	7.41E-06	4.84E-05	8.01E-06	5.64E-05	1.82E-05	-9.25E-06	8.97E-06	1.67E-05	-2.68E-08	1.66E-05	-5.18E-06	2.68E-06	-2.50E-06	2.15E-05	1.71E-05	3.86E-05	8.46E-18	-2.90E-18	5.55E-18	1.46E-05	2.36E-05	3.83E-05	1.21E-05	1.34E-05	2.55E-05	5.74E-05	3.43E-05	9.17E-05	5.87E-05	2.73E-05	8.60E-05	3.94E-05	1.01E-05	4.95E-05	8.46E-06	-1.29E-06	7.18E-06	1.37E-05	-6.29E-06	7.44E-06	9.92E-06	-1.08E-05	-9.27E-07	-2.05E-05	-1.16E-05	-3.21E-05	-2.01E-05	-6.87E-06	-2.70E-05	-9.76E-18	-1.56E-18	-1.13E-17	8.32E-06	1.37E-05	2.21E-05	-4.72E-06	6.34E-06	1.62E-06	3.81E-06	8.68E-06	1.25E-05	2.89E-06	9.89E-06	1.28E-05	-5.09E-05	-4.65E-06	-5.56E-05	-1.22E-05	5.94E-06	-6.30E-06	-7.73E-05	-6.45E-06	-8.37E-05	-3.47E-05	-1.34E-05	-4.81E-05	3.53E-06	1.79E-05	2.14E-05	3.50E-05	1.67E-05	5.17E-05	1.40E-17	-5.53E-18	8.50E-18	4.05E-05	5.70E-05	9.75E-05	1.02E-06	-9.92E-06	-8.90E-06	5.59E-05	1.76E-05	7.36E-05	6.64E-05	3.13E-05	9.77E-05	9.80E-05	3.84E-05	0.000136391	-2.88E-05	-1.80E-05	-4.68E-05	8.62E-07	-1.77E-05	-1.69E-05	-3.49E-05	-1.88E-05	-5.38E-05	0
-0.24	-1.88E-05	-9.45E-06	-2.82E-05	2.96E-05	2.18E-05	5.14E-05	1.70E-17	4.16E-18	2.12E-17	1.84E-05	2.19E-05	4.03E-05	-5.86E-07	4.05E-06	3.47E-06	1.91E-05	9.72E-06	2.88E-05	7.65E-05	2.16E-05	9.81E-05	7.26E-06	-8.92E-07	6.37E-06	5.10E-05	8.78E-06	5.98E-05	1.72E-05	-9.09E-06	8.07E-06	1.75E-05	-2.14E-07	1.72E-05	-5.29E-06	2.81E-06	-2.48E-06	2.29E-05	1.79E-05	4.09E-05	7.74E-18	-2.96E-18	4.78E-18	1.62E-05	2.53E-05	4.15E-05	1.33E-05	1.39E-05	2.72E-05	6.12E-05	3.60E-05	9.72E-05	6.32E-05	2.89E-05	9.21E-05	4.35E-05	1.08E-05	5.43E-05	8.82E-06	-1.61E-06	7.22E-06	1.48E-05	-6.98E-06	7.80E-06	1.03E-05	-1.19E-05	-1.65E-06	-2.28E-05	-1.25E-05	-3.53E-05	-2.10E-05	-7.11E-06	-2.81E-05	-9.65E-18	-1.55E-18	-1.12E-17	9.42E-06	1.51E-05	2.45E-05	-4.64E-06	6.83E-06	2.19E-06	4.36E-06	9.25E-06	1.36E-05	4.01E-06	1.09E-05	1.49E-05	-5.57E-05	-5.14E-06	-6.08E-05	-1.29E-05	6.53E-06	-6.41E-06	-8.28E-05	-7.42E-06	-9.02E-05	-3.69E-05	-1.43E-05	-5.12E-05	2.89E-06	1.78E-05	2.07E-05	3.61E-05	1.73E-05	5.33E-05	1.29E-17	-5.22E-18	7.71E-18	4.25E-05	5.91E-05	0.000101617	8.23E-07	-1.06E-05	-9.77E-06	5.98E-05	1.88E-05	7.85E-05	6.96E-05	3.29E-05	0.000102505	0.000102521	4.02E-05	0.000142752	-3.10E-05	-1.90E-05	-4.99E-05	3.79E-07	-1.87E-05	-1.83E-05	-3.78E-05	-1.99E-05	-5.77E-05	0
-0.2	-2.04E-05	-1.05E-05	-3.09E-05	3.20E-05	2.30E-05	5.50E-05	1.64E-17	4.05E-18	2.04E-17	2.01E-05	2.34E-05	4.34E-05	-1.20E-07	3.73E-06	3.61E-06	2.09E-05	1.01E-05	3.10E-05	8.07E-05	2.32E-05	0.000103914	6.16E-06	-9.27E-07	5.23E-06	5.36E-05	9.60E-06	6.32E-05	1.59E-05	-8.87E-06	7.07E-06	1.82E-05	-3.98E-07	1.78E-05	-5.39E-06	2.94E-06	-2.45E-06	2.42E-05	1.87E-05	4.30E-05	6.91E-18	-3.00E-18	3.90E-18	1.77E-05	2.69E-05	4.46E-05	1.45E-05	1.44E-05	2.89E-05	6.48E-05	3.76E-05	0.000102447	6.76E-05	3.04E-05	9.79E-05	4.76E-05	1.16E-05	5.92E-05	9.16E-06	-1.95E-06	7.21E-06	1.58E-05	-7.65E-06	8.13E-06	1.06E-05	-1.30E-05	-2.38E-06	-2.51E-05	-1.34E-05	-3.86E-05	-2.18E-05	-7.30E-06	-2.91E-05	-9.46E-18	-1.52E-18	-1.10E-17	1.06E-05	1.64E-05	2.70E-05	-4.54E-06	7.31E-06	2.77E-06	4.95E-06	9.82E-06	1.48E-05	5.32E-06	1.20E-05	1.73E-05	-6.05E-05	-5.62E-06	-6.61E-05	-1.36E-05	7.14E-06	-6.42E-06	-8.82E-05	-8.39E-06	-9.66E-05	-3.91E-05	-1.51E-05	-5.42E-05	2.17E-06	1.76E-05	1.97E-05	3.70E-05	1.78E-05	5.48E-05	1.17E-17	-4.86E-18	6.81E-18	4.44E-05	6.10E-05	0.000105418	6.30E-07	-1.12E-05	-1.06E-05	6.35E-05	1.99E-05	8.34E-05	7.26E-05	3.45E-05	0.000107178	0.000106806	4.19E-05	0.000148756	-3.31E-05	-1.98E-05	-5.29E-05	-9.80E-08	-1.96E-05	-1.97E-05	-4.06E-05	-2.09E-05	-6.15E-05	0
-0.16	-2.21E-05	-1.15E-05	-3.36E-05	3.43E-05	2.43E-05	5.86E-05	1.56E-17	3.91E-18	1.95E-17	2.17E-05	2.49E-05	4.66E-05	3.06E-07	3.41E-06	3.72E-06	2.27E-05	1.04E-05	3.31E-05	8.49E-05	2.47E-05	0.000109638	4.96E-06	-9.69E-07	3.99E-06	5.60E-05	1.04E-05	6.65E-05	1.46E-05	-8.59E-06	5.97E-06	1.89E-05	-5.77E-07	1.83E-05	-5.47E-06	3.06E-06	-2.41E-06	2.55E-05	1.95E-05	4.50E-05	5.96E-18	-3.03E-18	2.93E-18	1.92E-05	2.84E-05	4.76E-05	1.56E-05	1.49E-05	3.05E-05	6.82E-05	3.92E-05	0.000107362	7.18E-05	3.18E-05	0.000103626	5.17E-05	1.24E-05	6.41E-05	9.47E-06	-2.31E-06	7.16E-06	1.67E-05	-8.30E-06	8.42E-06	1.10E-05	-1.41E-05	-3.13E-06	-2.75E-05	-1.44E-05	-4.19E-05	-2.25E-05	-7.43E-06	-2.99E-05	-9.19E-18	-1.49E-18	-1.07E-17	1.18E-05	1.79E-05	2.97E-05	-4.43E-06	7.79E-06	3.36E-06	5.56E-06	1.04E-05	1.60E-05	6.83E-06	1.31E-05	1.99E-05	-6.54E-05	-6.09E-06	-7.15E-05	-1.41E-05	7.78E-06	-6.32E-06	-9.35E-05	-9.37E-06	-0.000102842	-4.12E-05	-1.59E-05	-5.71E-05	1.38E-06	1.72E-05	1.86E-05	3.79E-05	1.83E-05	5.62E-05	1.02E-17	-4.43E-18	5.81E-18	4.62E-05	6.26E-05	0.000108868	4.41E-07	-1.18E-05	-1.14E-05	6.73E-05	2.10E-05	8.83E-05	7.56E-05	3.61E-05	0.000111718	0.000110835	4.36E-05	0.000154394	-3.51E-05	-2.06E-05	-5.58E-05	-5.61E-07	-2.03E-05	-2.09E-05	-4.34E-05	-2.18E-05	-6.52E-05	0
-0.12	-2.38E-05	-1.25E-05	-3.63E-05	3.65E-05	2.56E-05	6.20E-05	1.46E-17	3.72E-18	1.84E-17	2.33E-05	2.64E-05	4.97E-05	6.88E-07	3.08E-06	3.77E-06	2.44E-05	1.07E-05	3.51E-05	8.90E-05	2.63E-05	0.000115258	3.67E-06	-1.02E-06	2.65E-06	5.83E-05	1.13E-05	6.97E-05	1.30E-05	-8.26E-06	4.79E-06	1.95E-05	-7.51E-07	1.88E-05	-5.54E-06	3.18E-06	-2.36E-06	2.66E-05	2.02E-05	4.69E-05	4.91E-18	-3.04E-18	1.87E-18	2.06E-05	2.99E-05	5.05E-05	1.66E-05	1.54E-05	3.20E-05	7.13E-05	4.06E-05	0.000111954	7.59E-05	3.32E-05	0.000109075	5.57E-05	1.32E-05	6.90E-05	9.75E-06	-2.69E-06	7.07E-06	1.76E-05	-8.93E-06	8.68E-06	1.13E-05	-1.52E-05	-3.90E-06	-3.00E-05	-1.53E-05	-4.53E-05	-2.31E-05	-7.51E-06	-3.06E-05	-8.85E-18	-1.44E-18	-1.03E-17	1.31E-05	1.93E-05	3.24E-05	-4.30E-06	8.26E-06	3.96E-06	6.20E-06	1.10E-05	1.72E-05	8.54E-06	1.43E-05	2.28E-05	-7.02E-05	-6.57E-06	-7.68E-05	-1.46E-05	8.45E-06	-6.11E-06	-9.86E-05	-1.04E-05	-0.00010899	-4.33E-05	-1.66E-05	-5.99E-05	5.07E-07	1.67E-05	1.72E-05	3.86E-05	1.88E-05	5.74E-05	8.66E-18	-3.96E-18	4.70E-18	4.79E-05	6.40E-05	0.000111962	2.61E-07	-1.24E-05	-1.21E-05	7.10E-05	2.22E-05	9.32E-05	7.85E-05	3.76E-05	0.000116125	0.000114605	4.51E-05	0.000159662	-3.70E-05	-2.14E-05	-5.84E-05	-1.00E-06	-2.11E-05	-2.21E-05	-4.60E-05	-2.27E-05	-6.87E-05	0
-0.08	-2.56E-05	-1.36E-05	-3.92E-05	3.86E-05	2.68E-05	6.54E-05	1.36E-17	3.50E-18	1.71E-17	2.49E-05	2.79E-05	5.28E-05	1.02E-06	2.75E-06	3.77E-06	2.61E-05	1.11E-05	3.71E-05	9.29E-05	2.79E-05	0.000120774	2.30E-06	-1.08E-06	1.21E-06	6.05E-05	1.22E-05	7.27E-05	1.14E-05	-7.88E-06	3.52E-06	2.01E-05	-9.18E-07	1.92E-05	-5.59E-06	3.28E-06	-2.31E-06	2.76E-05	2.10E-05	4.86E-05	3.77E-18	-3.03E-18	7.36E-19	2.20E-05	3.13E-05	5.33E-05	1.75E-05	1.59E-05	3.34E-05	7.42E-05	4.20E-05	0.000116211	7.97E-05	3.45E-05	0.000114283	5.97E-05	1.41E-05	7.38E-05	1.00E-05	-3.08E-06	6.93E-06	1.84E-05	-9.53E-06	8.90E-06	1.16E-05	-1.62E-05	-4.68E-06	-3.25E-05	-1.63E-05	-4.88E-05	-2.35E-05	-7.53E-06	-3.11E-05	-8.43E-18	-1.37E-18	-9.80E-18	1.44E-05	2.08E-05	3.52E-05	-4.16E-06	8.73E-06	4.56E-06	6.87E-06	1.16E-05	1.85E-05	1.04E-05	1.55E-05	2.59E-05	-7.50E-05	-7.03E-06	-8.21E-05	-1.49E-05	9.13E-06	-5.79E-06	-0.000103652	-1.13E-05	-0.000114999	-4.53E-05	-1.73E-05	-6.27E-05	-4.30E-07	1.61E-05	1.57E-05	3.93E-05	1.92E-05	5.85E-05	6.94E-18	-3.43E-18	3.51E-18	4.95E-05	6.52E-05	0.000114692	9.11E-08	-1.28E-05	-1.28E-05	7.46E-05	2.33E-05	9.79E-05	8.13E-05	3.91E-05	0.000120398	0.000118118	4.64E-05	0.000164561	-3.88E-05	-2.20E-05	-6.09E-05	-1.41E-06	-2.17E-05	-2.31E-05	-4.86E-05	-2.34E-05	-7.20E-05	0
-0.04	-2.75E-05	-1.46E-05	-4.21E-05	4.07E-05	2.80E-05	6.86E-05	1.23E-17	3.24E-18	1.56E-17	2.65E-05	2.94E-05	5.59E-05	1.30E-06	2.42E-06	3.73E-06	2.77E-05	1.14E-05	3.91E-05	9.67E-05	2.95E-05	0.000126185	8.41E-07	-1.16E-06	-3.17E-07	6.26E-05	1.31E-05	7.57E-05	9.64E-06	-7.47E-06	2.18E-06	2.07E-05	-1.08E-06	1.96E-05	-5.63E-06	3.38E-06	-2.25E-06	2.86E-05	2.16E-05	5.02E-05	2.54E-18	-3.01E-18	-4.72E-19	2.33E-05	3.27E-05	5.60E-05	1.83E-05	1.64E-05	3.47E-05	7.68E-05	4.33E-05	0.000120126	8.34E-05	3.58E-05	0.000119241	6.36E-05	1.50E-05	7.86E-05	1.02E-05	-3.49E-06	6.73E-06	1.92E-05	-1.01E-05	9.08E-06	1.18E-05	-1.73E-05	-5.48E-06	-3.50E-05	-1.73E-05	-5.23E-05	-2.38E-05	-7.50E-06	-3.14E-05	-7.94E-18	-1.30E-18	-9.24E-18	1.58E-05	2.24E-05	3.82E-05	-4.02E-06	9.18E-06	5.17E-06	7.57E-06	1.22E-05	1.98E-05	1.25E-05	1.67E-05	2.93E-05	-7.98E-05	-7.49E-06	-8.73E-05	-1.52E-05	9.84E-06	-5.35E-06	-0.000108515	-1.23E-05	-0.000120855	-4.72E-05	-1.80E-05	-6.53E-05	-1.43E-06	1.54E-05	1.39E-05	3.98E-05	1.96E-05	5.94E-05	5.10E-18	-2.85E-18	2.25E-18	5.09E-05	6.62E-05	0.000117058	-6.32E-08	-1.33E-05	-1.33E-05	7.82E-05	2.45E-05	0.000102662	8.40E-05	4.06E-05	0.000124538	0.000121374	4.77E-05	0.000169092	-4.05E-05	-2.26E-05	-6.31E-05	-1.78E-06	-2.22E-05	-2.40E-05	-5.11E-05	-2.40E-05	-7.51E-05	0
0	-2.94E-05	-1.57E-05	-4.50E-05	4.26E-05	2.91E-05	7.18E-05	1.10E-17	2.95E-18	1.39E-17	2.80E-05	3.10E-05	5.90E-05	1.53E-06	2.10E-06	3.62E-06	2.92E-05	1.18E-05	4.10E-05	0.000100434	3.11E-05	0.000131494	-6.85E-07	-1.25E-06	-1.94E-06	6.45E-05	1.41E-05	7.86E-05	7.78E-06	-7.02E-06	7.64E-07	2.11E-05	-1.23E-06	1.99E-05	-5.65E-06	3.47E-06	-2.19E-06	2.94E-05	2.23E-05	5.16E-05	1.23E-18	-2.97E-18	-1.74E-18	2.46E-05	3.40E-05	5.86E-05	1.90E-05	1.68E-05	3.59E-05	7.91E-05	4.45E-05	0.000123691	8.69E-05	3.71E-05	0.00012394	6.74E-05	1.60E-05	8.34E-05	1.04E-05	-3.91E-06	6.48E-06	1.98E-05	-1.06E-05	9.22E-06	1.20E-05	-1.83E-05	-6.29E-06	-3.77E-05	-1.83E-05	-5.59E-05	-2.41E-05	-7.42E-06	-3.15E-05	-7.39E-18	-1.22E-18	-8.61E-18	1.73E-05	2.40E-05	4.12E-05	-3.86E-06	9.63E-06	5.78E-06	8.30E-06	1.28E-05	2.11E-05	1.48E-05	1.80E-05	3.28E-05	-8.46E-05	-7.93E-06	-9.26E-05	-1.54E-05	1.06E-05	-4.80E-06	-0.000113213	-1.33E-05	-0.000126547	-4.91E-05	-1.86E-05	-6.77E-05	-2.49E-06	1.45E-05	1.20E-05	4.02E-05	2.00E-05	6.02E-05	3.16E-18	-2.24E-18	9.18E-19	5.21E-05	6.69E-05	0.00011906	-1.99E-07	-1.37E-05	-1.39E-05	8.17E-05	2.56E-05	0.000107312	8.66E-05	4.20E-05	0.000128548	0.000124381	4.89E-05	0.000173264	-4.21E-05	-2.31E-05	-6.51E-05	-2.09E-06	-2.26E-05	-2.47E-05	-5.34E-05	-2.46E-05	-7.80E-05	0
0.04	-3.13E-05	-1.67E-05	-4.80E-05	4.45E-05	3.03E-05	7.48E-05	9.49E-18	2.64E-18	1.21E-17	2.95E-05	3.25E-05	6.20E-05	1.69E-06	1.78E-06	3.47E-06	3.07E-05	1.21E-05	4.29E-05	0.000104046	3.27E-05	0.000136705	-2.28E-06	-1.36E-06	-3.64E-06	6.64E-05	1.51E-05	8.14E-05	5.84E-06	-6.55E-06	-7.06E-07	2.16E-05	-1.37E-06	2.02E-05	-5.67E-06	3.54E-06	-2.13E-06	3.00E-05	2.29E-05	5.29E-05	-1.44E-19	-2.92E-18	-3.06E-18	2.58E-05	3.53E-05	6.11E-05	1.97E-05	1.73E-05	3.70E-05	8.12E-05	4.57E-05	0.000126906	9.01E-05	3.82E-05	0.000128377	7.12E-05	1.70E-05	8.81E-05	1.05E-05	-4.34E-06	6.18E-06	2.04E-05	-1.11E-05	9.30E-06	1.21E-05	-1.92E-05	-7.12E-06	-4.03E-05	-1.92E-05	-5.96E-05	-2.41E-05	-7.29E-06	-3.14E-05	-6.78E-18	-1.13E-18	-7.90E-18	1.88E-05	2.56E-05	4.44E-05	-3.68E-06	1.01E-05	6.39E-06	9.05E-06	1.34E-05	2.25E-05	1.73E-05	1.93E-05	3.66E-05	-8.94E-05	-8.37E-06	-9.77E-05	-1.54E-05	1.13E-05	-4.14E-06	-0.000117737	-1.43E-05	-0.000132064	-5.09E-05	-1.92E-05	-7.01E-05	-3.60E-06	1.36E-05	9.99E-06	4.04E-05	2.04E-05	6.08E-05	1.13E-18	-1.59E-18	-4.64E-19	5.33E-05	6.74E-05	0.000120702	-3.12E-07	-1.40E-05	-1.43E-05	8.51E-05	2.68E-05	0.000111891	8.91E-05	4.33E-05	0.00013243	0.000127143	4.99E-05	0.000177085	-4.35E-05	-2.34E-05	-6.69E-05	-2.35E-06	-2.30E-05	-2.53E-05	-5.56E-05	-2.50E-05	-8.06E-05	0
0.08	-3.33E-05	-1.78E-05	-5.11E-05	4.63E-05	3.14E-05	7.77E-05	7.92E-18	2.29E-18	1.02E-17	3.09E-05	3.40E-05	6.49E-05	1.80E-06	1.46E-06	3.26E-06	3.21E-05	1.25E-05	4.46E-05	0.000107568	3.43E-05	0.000141824	-3.93E-06	-1.49E-06	-5.42E-06	6.81E-05	1.60E-05	8.41E-05	3.83E-06	-6.05E-06	-2.22E-06	2.19E-05	-1.50E-06	2.04E-05	-5.67E-06	3.60E-06	-2.07E-06	3.06E-05	2.35E-05	5.40E-05	-1.57E-18	-2.85E-18	-4.42E-18	2.69E-05	3.64E-05	6.34E-05	2.02E-05	1.77E-05	3.79E-05	8.30E-05	4.67E-05	0.000129771	9.32E-05	3.94E-05	0.000132551	7.48E-05	1.80E-05	9.28E-05	1.06E-05	-4.78E-06	5.81E-06	2.09E-05	-1.16E-05	9.34E-06	1.22E-05	-2.02E-05	-7.96E-06	-4.30E-05	-2.02E-05	-6.33E-05	-2.41E-05	-7.10E-06	-3.12E-05	-6.11E-18	-1.03E-18	-7.14E-18	2.03E-05	2.73E-05	4.76E-05	-3.50E-06	1.05E-05	7.01E-06	9.83E-06	1.41E-05	2.39E-05	2.00E-05	2.07E-05	4.07E-05	-9.40E-05	-8.79E-06	-0.000102837	-1.54E-05	1.21E-05	-3.36E-06	-0.00012208	-1.53E-05	-0.000137397	-5.25E-05	-1.98E-05	-7.23E-05	-4.76E-06	1.25E-05	7.79E-06	4.06E-05	2.07E-05	6.14E-05	-9.64E-19	-9.18E-19	-1.88E-18	5.43E-05	6.77E-05	0.000121992	-3.98E-07	-1.43E-05	-1.47E-05	8.85E-05	2.79E-05	0.000116392	9.16E-05	4.46E-05	0.000136188	0.000129673	5.09E-05	0.000180572	-4.47E-05	-2.37E-05	-6.84E-05	-2.53E-06	-2.32E-05	-2.57E-05	-5.77E-05	-2.53E-05	-8.30E-05	0
0.12	-3.54E-05	-1.88E-05	-5.42E-05	4.80E-05	3.25E-05	8.05E-05	6.26E-18	1.92E-18	8.18E-18	3.23E-05	3.55E-05	6.78E-05	1.84E-06	1.16E-06	3.00E-06	3.35E-05	1.29E-05	4.64E-05	0.000111012	3.58E-05	0.000146859	-5.63E-06	-1.65E-06	-7.28E-06	6.97E-05	1.70E-05	8.67E-05	1.77E-06	-5.55E-06	-3.78E-06	2.22E-05	-1.62E-06	2.06E-05	-5.66E-06	3.65E-06	-2.01E-06	3.10E-05	2.40E-05	5.50E-05	-3.03E-18	-2.77E-18	-5.80E-18	2.80E-05	3.76E-05	6.56E-05	2.06E-05	1.82E-05	3.88E-05	8.46E-05	4.77E-05	0.000132291	9.60E-05	4.05E-05	0.000136463	7.83E-05	1.90E-05	9.73E-05	1.06E-05	-5.24E-06	5.38E-06	2.14E-05	-1.20E-05	9.32E-06	1.23E-05	-2.11E-05	-8.82E-06	-4.58E-05	-2.12E-05	-6.70E-05	-2.39E-05	-6.86E-06	-3.08E-05	-5.40E-18	-9.21E-19	-6.32E-18	2.19E-05	2.90E-05	5.09E-05	-3.32E-06	1.09E-05	7.62E-06	1.06E-05	1.47E-05	2.53E-05	2.28E-05	2.21E-05	4.49E-05	-9.87E-05	-9.20E-06	-0.00010786	-1.53E-05	1.28E-05	-2.48E-06	-0.000126236	-1.63E-05	-0.000142541	-5.42E-05	-2.03E-05	-7.44E-05	-5.95E-06	1.14E-05	5.46E-06	4.07E-05	2.11E-05	6.18E-05	-3.09E-18	-2.26E-19	-3.32E-18	5.51E-05	6.78E-05	0.000122937	-4.55E-07	-1.45E-05	-1.49E-05	9.18E-05	2.90E-05	0.000120813	9.39E-05	4.59E-05	0.000139827	0.000131982	5.18E-05	0.00018374	-4.58E-05	-2.39E-05	-6.97E-05	-2.64E-06	-2.33E-05	-2.60E-05	-5.96E-05	-2.56E-05	-8.52E-05	0
0.16	-3.75E-05	-1.98E-05	-5.73E-05	4.96E-05	3.35E-05	8.31E-05	4.53E-18	1.53E-18	6.06E-18	3.37E-05	3.70E-05	7.07E-05	1.82E-06	8.73E-07	2.69E-06	3.47E-05	1.33E-05	4.80E-05	0.000114394	3.74E-05	0.00015182	-7.37E-06	-1.84E-06	-9.21E-06	7.12E-05	1.80E-05	8.92E-05	-3.27E-07	-5.04E-06	-5.37E-06	2.25E-05	-1.74E-06	2.08E-05	-5.64E-06	3.69E-06	-1.96E-06	3.13E-05	2.45E-05	5.59E-05	-4.51E-18	-2.68E-18	-7.19E-18	2.91E-05	3.87E-05	6.77E-05	2.09E-05	1.86E-05	3.95E-05	8.59E-05	4.86E-05	0.000134475	9.86E-05	4.15E-05	0.000140116	8.17E-05	2.01E-05	0.0001018	1.06E-05	-5.69E-06	4.90E-06	2.17E-05	-1.24E-05	9.25E-06	1.22E-05	-2.19E-05	-9.70E-06	-4.86E-05	-2.23E-05	-7.08E-05	-2.37E-05	-6.58E-06	-3.02E-05	-4.65E-18	-8.08E-19	-5.46E-18	2.36E-05	3.07E-05	5.43E-05	-3.12E-06	1.14E-05	8.24E-06	1.15E-05	1.53E-05	2.68E-05	2.58E-05	2.35E-05	4.93E-05	-0.00010319	-9.60E-06	-0.000112792	-1.51E-05	1.36E-05	-1.50E-06	-0.0001302	-1.73E-05	-0.00014749	-5.57E-05	-2.07E-05	-7.64E-05	-7.17E-06	1.02E-05	3.03E-06	4.07E-05	2.14E-05	6.21E-05	-5.24E-18	4.76E-19	-4.77E-18	5.58E-05	6.77E-05	0.000123552	-4.77E-07	-1.47E-05	-1.51E-05	9.50E-05	3.02E-05	0.00012515	9.62E-05	4.71E-05	0.000143352	0.000134084	5.25E-05	0.00018661	-4.67E-05	-2.40E-05	-7.07E-05	-2.65E-06	-2.33E-05	-2.60E-05	-6.14E-05	-2.57E-05	-8.70E-05	0
0.2	-3.97E-05	-2.08E-05	-6.05E-05	5.10E-05	3.46E-05	8.56E-05	2.74E-18	1.12E-18	3.86E-18	3.50E-05	3.85E-05	7.35E-05	1.74E-06	5.97E-07	2.33E-06	3.59E-05	1.37E-05	4.97E-05	0.000117728	3.90E-05	0.000156719	-9.14E-06	-2.06E-06	-1.12E-05	7.27E-05	1.89E-05	9.16E-05	-2.44E-06	-4.54E-06	-6.98E-06	2.27E-05	-1.83E-06	2.09E-05	-5.62E-06	3.71E-06	-1.91E-06	3.15E-05	2.50E-05	5.66E-05	-6.01E-18	-2.58E-18	-8.59E-18	3.00E-05	3.97E-05	6.97E-05	2.12E-05	1.90E-05	4.02E-05	8.69E-05	4.94E-05	0.000136333	0.000101038	4.25E-05	0.000143519	8.50E-05	2.12E-05	0.000106193	1.05E-05	-6.16E-06	4.34E-06	2.19E-05	-1.28E-05	9.12E-06	1.22E-05	-2.28E-05	-1.06E-05	-5.14E-05	-2.33E-05	-7.46E-05	-2.33E-05	-6.26E-06	-2.95E-05	-3.87E-18	-6.89E-19	-4.56E-18	2.53E-05	3.24E-05	5.77E-05	-2.91E-06	1.18E-05	8.86E-06	1.23E-05	1.60E-05	2.83E-05	2.90E-05	2.49E-05	5.39E-05	-0.000107636	-9.99E-06	-0.000117623	-1.48E-05	1.44E-05	-4.12E-07	-0.000133969	-1.83E-05	-0.00015224	-5.71E-05	-2.11E-05	-7.82E-05	-8.41E-06	8.92E-06	5.10E-07	4.06E-05	2.17E-05	6.23E-05	-7.38E-18	1.18E-18	-6.20E-18	5.64E-05	6.74E-05	0.00012385	-4.62E-07	-1.48E-05	-1.52E-05	9.81E-05	3.13E-05	0.000129401	9.85E-05	4.83E-05	0.00014677	0.000135996	5.32E-05	0.000189205	-4.74E-05	-2.40E-05	-7.14E-05	-2.57E-06	-2.33E-05	-2.58E-05	-6.29E-05	-2.57E-05	-8.87E-05	0
0.24	-4.19E-05	-2.18E-05	-6.36E-05	5.24E-05	3.56E-05	8.80E-05	9.22E-19	6.99E-19	1.62E-18	3.62E-05	4.00E-05	7.62E-05	1.59E-06	3.36E-07	1.93E-06	3.71E-05	1.41E-05	5.12E-05	0.000121031	4.05E-05	0.000161567	-1.09E-05	-2.31E-06	-1.32E-05	7.41E-05	1.99E-05	9.39E-05	-4.54E-06	-4.06E-06	-8.59E-06	2.29E-05	-1.92E-06	2.09E-05	-5.59E-06	3.71E-06	-1.88E-06	3.16E-05	2.55E-05	5.71E-05	-7.49E-18	-2.48E-18	-9.97E-18	3.10E-05	4.07E-05	7.16E-05	2.13E-05	1.94E-05	4.07E-05	8.77E-05	5.01E-05	0.000137879	0.00010325	4.34E-05	0.000146681	8.82E-05	2.23E-05	0.000110492	1.03E-05	-6.62E-06	3.72E-06	2.21E-05	-1.31E-05	8.93E-06	1.20E-05	-2.35E-05	-1.15E-05	-5.42E-05	-2.43E-05	-7.85E-05	-2.28E-05	-5.90E-06	-2.87E-05	-3.07E-18	-5.67E-19	-3.64E-18	2.70E-05	3.42E-05	6.13E-05	-2.70E-06	1.22E-05	9.49E-06	1.32E-05	1.66E-05	2.98E-05	3.23E-05	2.64E-05	5.86E-05	-0.000111985	-1.04E-05	-0.000122343	-1.44E-05	1.52E-05	7.63E-07	-0.000137541	-1.92E-05	-0.00015679	-5.84E-05	-2.15E-05	-8.00E-05	-9.66E-06	7.58E-06	-2.08E-06	4.04E-05	2.19E-05	6.24E-05	-9.49E-18	1.88E-18	-7.61E-18	5.69E-05	6.69E-05	0.00012385	-4.05E-07	-1.48E-05	-1.52E-05	0.00010113	3.24E-05	0.000133563	0.000100639	4.94E-05	0.000150086	0.000137736	5.38E-05	0.000191551	-4.80E-05	-2.39E-05	-7.19E-05	-2.38E-06	-2.31E-05	-2.55E-05	-6.43E-05	-2.57E-05	-9.00E-05	0
0.28	-4.41E-05	-2.27E-05	-6.68E-05	5.37E-05	3.65E-05	9.02E-05	-9.16E-19	2.67E-19	-6.49E-19	3.74E-05	4.15E-05	7.89E-05	1.39E-06	9.29E-08	1.48E-06	3.81E-05	1.46E-05	5.27E-05	0.000124322	4.21E-05	0.000166379	-1.27E-05	-2.59E-06	-1.53E-05	7.54E-05	2.08E-05	9.62E-05	-6.61E-06	-3.59E-06	-1.02E-05	2.30E-05	-2.00E-06	2.10E-05	-5.55E-06	3.70E-06	-1.85E-06	3.16E-05	2.60E-05	5.76E-05	-8.95E-18	-2.36E-18	-1.13E-17	3.18E-05	4.16E-05	7.34E-05	2.13E-05	1.98E-05	4.11E-05	8.83E-05	5.08E-05	0.00013913	0.000105269	4.43E-05	0.000149612	9.12E-05	2.35E-05	0.000114692	1.01E-05	-7.09E-06	3.03E-06	2.21E-05	-1.34E-05	8.68E-06	1.18E-05	-2.42E-05	-1.24E-05	-5.70E-05	-2.54E-05	-8.24E-05	-2.22E-05	-5.50E-06	-2.77E-05	-2.26E-18	-4.42E-19	-2.70E-18	2.88E-05	3.61E-05	6.48E-05	-2.47E-06	1.26E-05	1.01E-05	1.41E-05	1.73E-05	3.14E-05	3.57E-05	2.79E-05	6.35E-05	-0.000116228	-1.07E-05	-0.000126942	-1.39E-05	1.60E-05	2.02E-06	-0.000140917	-2.02E-05	-0.000161139	-5.97E-05	-2.19E-05	-8.16E-05	-1.09E-05	6.20E-06	-4.71E-06	4.02E-05	2.22E-05	6.24E-05	-1.15E-17	2.57E-18	-8.98E-18	5.73E-05	6.63E-05	0.000123569	-3.04E-07	-1.48E-05	-1.51E-05	0.000104088	3.35E-05	0.000137635	0.000102754	5.06E-05	0.000153308	0.000139322	5.44E-05	0.000193675	-4.84E-05	-2.37E-05	-7.21E-05	-2.07E-06	-2.29E-05	-2.49E-05	-6.56E-05	-2.55E-05	-9.11E-05	0
0.32	-4.63E-05	-2.37E-05	-7.00E-05	5.49E-05	3.74E-05	9.24E-05	-2.75E-18	-1.72E-19	-2.92E-18	3.86E-05	4.30E-05	8.16E-05	1.13E-06	-1.32E-07	9.95E-07	3.91E-05	1.50E-05	5.42E-05	0.000127621	4.35E-05	0.000171169	-1.46E-05	-2.92E-06	-1.75E-05	7.67E-05	2.17E-05	9.84E-05	-8.64E-06	-3.15E-06	-1.18E-05	2.31E-05	-2.07E-06	2.10E-05	-5.52E-06	3.67E-06	-1.84E-06	3.15E-05	2.64E-05	5.79E-05	-1.04E-17	-2.24E-18	-1.26E-17	3.26E-05	4.24E-05	7.51E-05	2.12E-05	2.02E-05	4.14E-05	8.87E-05	5.14E-05	0.000140106	0.000107107	4.52E-05	0.000152329	9.42E-05	2.46E-05	0.00011879	9.83E-06	-7.56E-06	2.27E-06	2.21E-05	-1.37E-05	8.37E-06	1.15E-05	-2.49E-05	-1.34E-05	-5.99E-05	-2.64E-05	-8.63E-05	-2.15E-05	-5.07E-06	-2.66E-05	-1.44E-18	-3.16E-19	-1.76E-18	3.06E-05	3.79E-05	6.85E-05	-2.25E-06	1.30E-05	1.07E-05	1.51E-05	1.79E-05	3.30E-05	3.92E-05	2.94E-05	6.86E-05	-0.000120358	-1.11E-05	-0.000131414	-1.34E-05	1.68E-05	3.36E-06	-0.000144097	-2.12E-05	-0.000165289	-6.09E-05	-2.22E-05	-8.30E-05	-1.21E-05	4.79E-06	-7.36E-06	3.99E-05	2.24E-05	6.23E-05	-1.35E-17	3.23E-18	-1.03E-17	5.75E-05	6.55E-05	0.000123029	-1.55E-07	-1.48E-05	-1.49E-05	0.000106966	3.46E-05	0.000141616	0.000104817	5.16E-05	0.000156442	0.000140776	5.48E-05	0.000195608	-4.85E-05	-2.34E-05	-7.20E-05	-1.63E-06	-2.25E-05	-2.42E-05	-6.66E-05	-2.53E-05	-9.19E-05	0
0.36	-4.86E-05	-2.46E-05	-7.32E-05	5.60E-05	3.83E-05	9.44E-05	-4.56E-18	-6.12E-19	-5.18E-18	3.97E-05	4.45E-05	8.42E-05	8.12E-07	-3.38E-07	4.74E-07	4.01E-05	1.55E-05	5.56E-05	0.000130946	4.50E-05	0.000175954	-1.64E-05	-3.28E-06	-1.97E-05	7.79E-05	2.26E-05	0.000100469	-1.06E-05	-2.76E-06	-1.34E-05	2.31E-05	-2.12E-06	2.10E-05	-5.47E-06	3.63E-06	-1.84E-06	3.13E-05	2.68E-05	5.81E-05	-1.17E-17	-2.12E-18	-1.39E-17	3.34E-05	4.33E-05	7.67E-05	2.11E-05	2.06E-05	4.16E-05	8.89E-05	5.20E-05	0.000140828	0.000108775	4.61E-05	0.000154846	9.70E-05	2.58E-05	0.000122784	9.46E-06	-8.02E-06	1.44E-06	2.19E-05	-1.39E-05	8.00E-06	1.11E-05	-2.55E-05	-1.44E-05	-6.27E-05	-2.75E-05	-9.02E-05	-2.07E-05	-4.61E-06	-2.53E-05	-6.27E-19	-1.89E-19	-8.16E-19	3.24E-05	3.98E-05	7.21E-05	-2.01E-06	1.34E-05	1.14E-05	1.60E-05	1.86E-05	3.46E-05	4.28E-05	3.08E-05	7.37E-05	-0.000124367	-1.14E-05	-0.000135752	-1.28E-05	1.75E-05	4.78E-06	-0.000147082	-2.22E-05	-0.000169242	-6.19E-05	-2.24E-05	-8.44E-05	-1.34E-05	3.35E-06	-1.00E-05	3.95E-05	2.26E-05	6.22E-05	-1.54E-17	3.86E-18	-1.15E-17	5.77E-05	6.46E-05	0.000122253	4.52E-08	-1.47E-05	-1.47E-05	0.000109764	3.57E-05	0.000145504	0.000106832	5.27E-05	0.000159497	0.00014212	5.53E-05	0.000197379	-4.85E-05	-2.31E-05	-7.16E-05	-1.06E-06	-2.21E-05	-2.32E-05	-6.74E-05	-2.49E-05	-9.24E-05	0
0.4	-5.09E-05	-2.55E-05	-7.63E-05	5.70E-05	3.92E-05	9.62E-05	-6.34E-18	-1.05E-18	-7.39E-18	4.08E-05	4.59E-05	8.67E-05	4.47E-07	-5.24E-07	-7.74E-08	4.09E-05	1.60E-05	5.69E-05	0.000134319	4.64E-05	0.00018075	-1.82E-05	-3.69E-06	-2.19E-05	7.91E-05	2.34E-05	0.000102525	-1.25E-05	-2.40E-06	-1.49E-05	2.32E-05	-2.16E-06	2.10E-05	-5.43E-06	3.57E-06	-1.86E-06	3.10E-05	2.72E-05	5.81E-05	-1.30E-17	-2.00E-18	-1.50E-17	3.41E-05	4.40E-05	7.82E-05	2.08E-05	2.09E-05	4.17E-05	8.89E-05	5.24E-05	0.00014132	0.000110285	4.69E-05	0.000157182	9.96E-05	2.70E-05	0.000126674	9.02E-06	-8.48E-06	5.40E-07	2.17E-05	-1.41E-05	7.56E-06	1.06E-05	-2.60E-05	-1.54E-05	-6.56E-05	-2.85E-05	-9.41E-05	-1.98E-05	-4.13E-06	-2.40E-05	1.72E-19	-6.43E-20	1.08E-19	3.42E-05	4.16E-05	7.59E-05	-1.77E-06	1.38E-05	1.20E-05	1.70E-05	1.92E-05	3.62E-05	4.66E-05	3.23E-05	7.89E-05	-0.000128249	-1.17E-05	-0.000139948	-1.21E-05	1.83E-05	6.25E-06	-0.000149876	-2.31E-05	-0.000173002	-6.29E-05	-2.27E-05	-8.56E-05	-1.46E-05	1.92E-06	-1.26E-05	3.91E-05	2.28E-05	6.19E-05	-1.71E-17	4.45E-18	-1.26E-17	5.77E-05	6.35E-05	0.000121265	2.99E-07	-1.46E-05	-1.43E-05	0.000112484	3.68E-05	0.000149298	0.000108804	5.37E-05	0.000162478	0.000143376	5.56E-05	0.000199022	-4.83E-05	-2.26E-05	-7.10E-05	-3.46E-07	-2.16E-05	-2.19E-05	-6.80E-05	-2.45E-05	-9.26E-05	0
0.44	-5.32E-05	-2.63E-05	-7.95E-05	5.80E-05	4.00E-05	9.80E-05	-8.05E-18	-1.48E-18	-9.53E-18	4.18E-05	4.73E-05	8.92E-05	3.64E-08	-6.89E-07	-6.53E-07	4.18E-05	1.65E-05	5.82E-05	0.00013776	4.78E-05	0.000185574	-1.99E-05	-4.14E-06	-2.41E-05	8.04E-05	2.42E-05	0.000104537	-1.43E-05	-2.11E-06	-1.64E-05	2.32E-05	-2.20E-06	2.10E-05	-5.39E-06	3.49E-06	-1.90E-06	3.06E-05	2.75E-05	5.81E-05	-1.43E-17	-1.87E-18	-1.61E-17	3.48E-05	4.48E-05	7.96E-05	2.05E-05	2.13E-05	4.17E-05	8.87E-05	5.29E-05	0.000141607	0.000111654	4.77E-05	0.000159356	0.0001022	2.83E-05	0.000130459	8.50E-06	-8.93E-06	-4.30E-07	2.13E-05	-1.43E-05	7.06E-06	1.01E-05	-2.65E-05	-1.64E-05	-6.84E-05	-2.96E-05	-9.80E-05	-1.89E-05	-3.63E-06	-2.25E-05	9.48E-19	5.80E-20	1.01E-18	3.61E-05	4.35E-05	7.96E-05	-1.52E-06	1.42E-05	1.27E-05	1.80E-05	1.99E-05	3.79E-05	5.03E-05	3.38E-05	8.42E-05	-0.000131998	-1.20E-05	-0.000143998	-1.13E-05	1.91E-05	7.77E-06	-0.000152483	-2.41E-05	-0.000176575	-6.38E-05	-2.29E-05	-8.67E-05	-1.57E-05	4.83E-07	-1.52E-05	3.87E-05	2.30E-05	6.17E-05	-1.87E-17	5.00E-18	-1.37E-17	5.77E-05	6.24E-05	0.00012009	6.10E-07	-1.44E-05	-1.38E-05	0.000115126	3.79E-05	0.000152998	0.000110739	5.47E-05	0.000165395	0.000144566	5.60E-05	0.000200569	-4.80E-05	-2.21E-05	-7.00E-05	5.17E-07	-2.10E-05	-2.05E-05	-6.85E-05	-2.41E-05	-9.25E-05	0
0.48	-5.55E-05	-2.72E-05	-8.26E-05	5.88E-05	4.08E-05	9.97E-05	-9.68E-18	-1.90E-18	-1.16E-17	4.28E-05	4.87E-05	9.16E-05	-4.14E-07	-8.33E-07	-1.25E-06	4.25E-05	1.70E-05	5.95E-05	0.00014129	4.92E-05	0.000190444	-2.17E-05	-4.64E-06	-2.63E-05	8.16E-05	2.49E-05	0.000106514	-1.59E-05	-1.87E-06	-1.78E-05	2.31E-05	-2.22E-06	2.09E-05	-5.35E-06	3.39E-06	-1.96E-06	3.02E-05	2.79E-05	5.80E-05	-1.54E-17	-1.75E-18	-1.71E-17	3.55E-05	4.55E-05	8.10E-05	2.01E-05	2.16E-05	4.17E-05	8.84E-05	5.33E-05	0.000141716	0.000112898	4.85E-05	0.000161389	0.00010465	2.95E-05	0.000134141	7.91E-06	-9.38E-06	-1.47E-06	2.09E-05	-1.44E-05	6.51E-06	9.46E-06	-2.69E-05	-1.75E-05	-7.13E-05	-3.07E-05	-0.000101975	-1.79E-05	-3.12E-06	-2.10E-05	1.69E-18	1.76E-19	1.87E-18	3.79E-05	4.55E-05	8.34E-05	-1.26E-06	1.46E-05	1.33E-05	1.90E-05	2.06E-05	3.96E-05	5.42E-05	3.53E-05	8.95E-05	-0.000135609	-1.23E-05	-0.000147898	-1.05E-05	1.98E-05	9.34E-06	-0.000154908	-2.51E-05	-0.000179966	-6.47E-05	-2.31E-05	-8.78E-05	-1.68E-05	-9.29E-07	-1.77E-05	3.82E-05	2.31E-05	6.13E-05	-2.01E-17	5.49E-18	-1.46E-17	5.76E-05	6.12E-05	0.000118754	9.80E-07	-1.42E-05	-1.32E-05	0.000117693	3.89E-05	0.000156604	0.00011264	5.56E-05	0.000168252	0.000145714	5.63E-05	0.000202052	-4.74E-05	-2.15E-05	-6.89E-05	1.53E-06	-2.03E-05	-1.88E-05	-6.87E-05	-2.35E-05	-9.22E-05	0
0.52	-5.78E-05	-2.80E-05	-8.57E-05	5.96E-05	4.16E-05	0.000101244	-1.12E-17	-2.31E-18	-1.35E-17	4.38E-05	5.01E-05	9.40E-05	-9.00E-07	-9.54E-07	-1.85E-06	4.33E-05	1.75E-05	6.08E-05	0.000144928	5.04E-05	0.000195375	-2.34E-05	-5.19E-06	-2.86E-05	8.29E-05	2.56E-05	0.000108468	-1.74E-05	-1.70E-06	-1.91E-05	2.31E-05	-2.23E-06	2.09E-05	-5.31E-06	3.27E-06	-2.05E-06	2.97E-05	2.82E-05	5.79E-05	-1.64E-17	-1.63E-18	-1.80E-17	3.61E-05	4.62E-05	8.23E-05	1.96E-05	2.19E-05	4.15E-05	8.80E-05	5.37E-05	0.000141676	0.000114032	4.93E-05	0.000163303	0.000106991	3.07E-05	0.000137723	7.23E-06	-9.81E-06	-2.58E-06	2.04E-05	-1.45E-05	5.89E-06	8.73E-06	-2.73E-05	-1.85E-05	-7.41E-05	-3.18E-05	-0.000105896	-1.69E-05	-2.60E-06	-1.95E-05	2.40E-18	2.89E-19	2.69E-18	3.98E-05	4.74E-05	8.71E-05	-9.98E-07	1.50E-05	1.40E-05	2.01E-05	2.13E-05	4.13E-05	5.80E-05	3.68E-05	9.48E-05	-0.000139079	-1.26E-05	-0.000151644	-9.57E-06	2.05E-05	1.09E-05	-0.000157157	-2.60E-05	-0.000183183	-6.54E-05	-2.33E-05	-8.87E-05	-1.78E-05	-2.31E-06	-2.01E-05	3.77E-05	2.33E-05	6.10E-05	-2.13E-17	5.92E-18	-1.54E-17	5.74E-05	5.98E-05	0.000117283	1.41E-06	-1.40E-05	-1.26E-05	0.000120187	3.99E-05	0.000160115	0.000114513	5.65E-05	0.000171057	0.000146843	5.67E-05	0.000203505	-4.66E-05	-2.08E-05	-6.74E-05	2.71E-06	-1.96E-05	-1.69E-05	-6.87E-05	-2.29E-05	-9.16E-05	0
0.56	-6.01E-05	-2.87E-05	-8.88E-05	6.04E-05	4.24E-05	0.000102715	-1.26E-17	-2.69E-18	-1.53E-17	4.48E-05	5.15E-05	9.63E-05	-1.41E-06	-1.05E-06	-2.47E-06	4.40E-05	1.80E-05	6.20E-05	0.000148695	5.17E-05	0.000200384	-2.50E-05	-5.79E-06	-3.08E-05	8.43E-05	2.62E-05	0.00011041	-1.88E-05	-1.60E-06	-2.04E-05	2.31E-05	-2.23E-06	2.08E-05	-5.28E-06	3.13E-06	-2.15E-06	2.91E-05	2.85E-05	5.76E-05	-1.72E-17	-1.51E-18	-1.87E-17	3.68E-05	4.69E-05	8.36E-05	1.91E-05	2.22E-05	4.13E-05	8.75E-05	5.40E-05	0.000141514	0.000115075	5.00E-05	0.00016512	0.000109229	3.20E-05	0.000141206	6.48E-06	-1.02E-05	-3.76E-06	1.98E-05	-1.46E-05	5.22E-06	7.91E-06	-2.76E-05	-1.97E-05	-7.69E-05	-3.29E-05	-0.000109804	-1.58E-05	-2.07E-06	-1.78E-05	3.05E-18	3.96E-19	3.45E-18	4.16E-05	4.93E-05	9.09E-05	-7.31E-07	1.54E-05	1.46E-05	2.11E-05	2.19E-05	4.30E-05	6.19E-05	3.82E-05	0.000100165	-0.000142404	-1.28E-05	-0.000155233	-8.64E-06	2.12E-05	1.26E-05	-0.000159236	-2.70E-05	-0.000186232	-6.61E-05	-2.34E-05	-8.95E-05	-1.88E-05	-3.65E-06	-2.25E-05	3.72E-05	2.34E-05	6.06E-05	-2.23E-17	6.28E-18	-1.60E-17	5.72E-05	5.85E-05	0.000115703	1.90E-06	-1.37E-05	-1.18E-05	0.000122608	4.09E-05	0.000163532	0.000116361	5.75E-05	0.000173815	0.000147973	5.70E-05	0.000204959	-4.56E-05	-2.00E-05	-6.57E-05	4.05E-06	-1.88E-05	-1.48E-05	-6.85E-05	-2.23E-05	-9.08E-05	0
0.6	-6.23E-05	-2.95E-05	-9.18E-05	6.10E-05	4.31E-05	0.0001041	-1.39E-17	-3.05E-18	-1.70E-17	4.57E-05	5.29E-05	9.85E-05	-1.95E-06	-1.13E-06	-3.08E-06	4.47E-05	1.85E-05	6.32E-05	0.000152609	5.29E-05	0.000205489	-2.66E-05	-6.44E-06	-3.31E-05	8.57E-05	2.67E-05	0.000112349	-2.00E-05	-1.57E-06	-2.16E-05	2.30E-05	-2.22E-06	2.08E-05	-5.25E-06	2.97E-06	-2.28E-06	2.85E-05	2.88E-05	5.73E-05	-1.79E-17	-1.40E-18	-1.93E-17	3.74E-05	4.75E-05	8.49E-05	1.85E-05	2.25E-05	4.10E-05	8.69E-05	5.43E-05	0.000141261	0.000116045	5.08E-05	0.000166863	0.000111373	3.32E-05	0.000144596	5.65E-06	-1.06E-05	-5.00E-06	1.92E-05	-1.47E-05	4.49E-06	7.00E-06	-2.78E-05	-2.08E-05	-7.96E-05	-3.41E-05	-0.000113696	-1.46E-05	-1.55E-06	-1.62E-05	3.65E-18	4.94E-19	4.15E-18	4.34E-05	5.12E-05	9.46E-05	-4.58E-07	1.58E-05	1.53E-05	2.22E-05	2.26E-05	4.48E-05	6.58E-05	3.97E-05	0.000105479	-0.000145582	-1.31E-05	-0.000158665	-7.67E-06	2.19E-05	1.42E-05	-0.000161151	-2.80E-05	-0.000189123	-6.67E-05	-2.35E-05	-9.03E-05	-1.97E-05	-4.92E-06	-2.46E-05	3.67E-05	2.35E-05	6.02E-05	-2.30E-17	6.57E-18	-1.65E-17	5.69E-05	5.71E-05	0.000114041	2.46E-06	-1.35E-05	-1.10E-05	0.000124959	4.19E-05	0.000166853	0.000118188	5.83E-05	0.000176531	0.000149128	5.73E-05	0.000206445	-4.45E-05	-1.92E-05	-6.37E-05	5.56E-06	-1.80E-05	-1.24E-05	-6.80E-05	-2.16E-05	-8.96E-05	0
0.64	-6.46E-05	-3.02E-05	-9.48E-05	6.17E-05	4.38E-05	0.000105406	-1.51E-17	-3.39E-18	-1.85E-17	4.65E-05	5.42E-05	0.000100724	-2.50E-06	-1.18E-06	-3.68E-06	4.54E-05	1.91E-05	6.45E-05	0.000156687	5.40E-05	0.000210704	-2.81E-05	-7.13E-06	-3.53E-05	8.71E-05	2.72E-05	0.000114299	-2.10E-05	-1.63E-06	-2.26E-05	2.30E-05	-2.20E-06	2.08E-05	-5.23E-06	2.80E-06	-2.43E-06	2.79E-05	2.91E-05	5.70E-05	-1.85E-17	-1.29E-18	-1.98E-17	3.80E-05	4.82E-05	8.61E-05	1.79E-05	2.27E-05	4.06E-05	8.63E-05	5.46E-05	0.000140945	0.000116961	5.16E-05	0.000168556	0.000113428	3.45E-05	0.000147897	4.74E-06	-1.10E-05	-6.30E-06	1.84E-05	-1.47E-05	3.71E-06	6.01E-06	-2.80E-05	-2.20E-05	-8.24E-05	-3.52E-05	-0.000117567	-1.35E-05	-1.03E-06	-1.45E-05	4.19E-18	5.84E-19	4.77E-18	4.53E-05	5.31E-05	9.84E-05	-1.81E-07	1.62E-05	1.60E-05	2.33E-05	2.33E-05	4.65E-05	6.97E-05	4.11E-05	0.00011075	-0.000148611	-1.33E-05	-0.000161939	-6.66E-06	2.25E-05	1.59E-05	-0.000162911	-2.90E-05	-0.000191865	-6.73E-05	-2.37E-05	-9.09E-05	-2.05E-05	-6.14E-06	-2.66E-05	3.62E-05	2.36E-05	5.98E-05	-2.36E-17	6.78E-18	-1.68E-17	5.66E-05	5.57E-05	0.000112321	3.08E-06	-1.32E-05	-1.01E-05	0.000127241	4.28E-05	0.000170078	0.000119996	5.92E-05	0.00017921	0.000150327	5.77E-05	0.000207992	-4.32E-05	-1.83E-05	-6.15E-05	7.24E-06	-1.71E-05	-9.89E-06	-6.74E-05	-2.09E-05	-8.83E-05	0
0.68	-6.69E-05	-3.08E-05	-9.77E-05	6.22E-05	4.44E-05	0.000106641	-1.61E-17	-3.69E-18	-1.98E-17	4.74E-05	5.55E-05	0.000102875	-3.05E-06	-1.21E-06	-4.26E-06	4.60E-05	1.96E-05	6.57E-05	0.000160945	5.51E-05	0.000216044	-2.96E-05	-7.88E-06	-3.75E-05	8.87E-05	2.76E-05	0.000116271	-2.18E-05	-1.77E-06	-2.36E-05	2.30E-05	-2.17E-06	2.08E-05	-5.22E-06	2.60E-06	-2.61E-06	2.72E-05	2.94E-05	5.66E-05	-1.89E-17	-1.19E-18	-2.01E-17	3.86E-05	4.88E-05	8.74E-05	1.73E-05	2.30E-05	4.02E-05	8.57E-05	5.49E-05	0.000140595	0.00011784	5.24E-05	0.00017022	0.000115405	3.57E-05	0.000151116	3.76E-06	-1.14E-05	-7.66E-06	1.76E-05	-1.47E-05	2.88E-06	4.92E-06	-2.81E-05	-2.32E-05	-8.51E-05	-3.63E-05	-0.000121411	-1.23E-05	-5.27E-07	-1.28E-05	4.66E-18	6.65E-19	5.32E-18	4.71E-05	5.50E-05	0.000102081	1.01E-07	1.66E-05	1.67E-05	2.43E-05	2.40E-05	4.83E-05	7.35E-05	4.25E-05	0.00011596	-0.000151491	-1.36E-05	-0.000165055	-5.63E-06	2.32E-05	1.75E-05	-0.000164522	-2.99E-05	-0.000194466	-6.78E-05	-2.38E-05	-9.15E-05	-2.12E-05	-7.27E-06	-2.85E-05	3.57E-05	2.37E-05	5.94E-05	-2.38E-17	6.91E-18	-1.69E-17	5.63E-05	5.43E-05	0.00011057	3.77E-06	-1.29E-05	-9.08E-06	0.000129457	4.38E-05	0.000173207	0.000121787	6.01E-05	0.000181855	0.000151589	5.80E-05	0.000209627	-4.17E-05	-1.74E-05	-5.90E-05	9.09E-06	-1.62E-05	-7.11E-06	-6.66E-05	-2.01E-05	-8.67E-05	0
0.72	-6.91E-05	-3.15E-05	-0.000100578	6.28E-05	4.50E-05	0.000107813	-1.69E-17	-3.97E-18	-2.08E-17	4.82E-05	5.68E-05	0.000104974	-3.61E-06	-1.22E-06	-4.83E-06	4.67E-05	2.02E-05	6.69E-05	0.000165396	5.61E-05	0.000221521	-3.09E-05	-8.68E-06	-3.96E-05	9.04E-05	2.79E-05	0.000118275	-2.24E-05	-1.99E-06	-2.44E-05	2.30E-05	-2.13E-06	2.09E-05	-5.21E-06	2.39E-06	-2.82E-06	2.65E-05	2.97E-05	5.62E-05	-1.92E-17	-1.09E-18	-2.03E-17	3.92E-05	4.94E-05	8.86E-05	1.66E-05	2.32E-05	3.98E-05	8.50E-05	5.52E-05	0.00014024	0.000118703	5.32E-05	0.000171879	0.000117313	3.69E-05	0.000154258	2.70E-06	-1.18E-05	-9.08E-06	1.68E-05	-1.48E-05	2.01E-06	3.75E-06	-2.81E-05	-2.44E-05	-8.78E-05	-3.75E-05	-0.000125225	-1.11E-05	-3.45E-08	-1.11E-05	5.05E-18	7.35E-19	5.78E-18	4.88E-05	5.69E-05	0.000105748	3.87E-07	1.70E-05	1.74E-05	2.54E-05	2.46E-05	5.01E-05	7.73E-05	4.38E-05	0.000121089	-0.000154222	-1.38E-05	-0.000168014	-4.57E-06	2.37E-05	1.92E-05	-0.000165994	-3.09E-05	-0.000196935	-6.82E-05	-2.39E-05	-9.21E-05	-2.18E-05	-8.31E-06	-3.01E-05	3.52E-05	2.38E-05	5.90E-05	-2.38E-17	6.95E-18	-1.69E-17	5.60E-05	5.28E-05	0.00010881	4.53E-06	-1.25E-05	-8.00E-06	0.000131608	4.46E-05	0.00017624	0.000123564	6.09E-05	0.000184468	0.000152932	5.84E-05	0.000211375	-4.00E-05	-1.64E-05	-5.64E-05	1.11E-05	-1.53E-05	-4.14E-06	-6.55E-05	-1.93E-05	-8.49E-05	0
0.76	-7.13E-05	-3.21E-05	-0.00010339	6.33E-05	4.56E-05	0.000108929	-1.75E-17	-4.20E-18	-2.17E-17	4.90E-05	5.80E-05	0.000107022	-4.15E-06	-1.21E-06	-5.36E-06	4.74E-05	2.08E-05	6.81E-05	0.000170054	5.71E-05	0.000227147	-3.22E-05	-9.52E-06	-4.17E-05	9.22E-05	2.81E-05	0.000120322	-2.28E-05	-2.30E-06	-2.51E-05	2.30E-05	-2.08E-06	2.09E-05	-5.21E-06	2.16E-06	-3.05E-06	2.59E-05	3.00E-05	5.58E-05	-1.93E-17	-1.00E-18	-2.03E-17	3.98E-05	5.01E-05	8.99E-05	1.59E-05	2.34E-05	3.93E-05	8.44E-05	5.55E-05	0.000139907	0.000119565	5.40E-05	0.000173554	0.000119161	3.82E-05	0.000157331	1.58E-06	-1.21E-05	-1.05E-05	1.59E-05	-1.48E-05	1.09E-06	2.50E-06	-2.81E-05	-2.56E-05	-9.04E-05	-3.86E-05	-0.000129003	-9.91E-06	4.39E-07	-9.47E-06	5.36E-18	7.93E-19	6.16E-18	5.06E-05	5.88E-05	0.000109368	6.77E-07	1.74E-05	1.81E-05	2.65E-05	2.53E-05	5.18E-05	8.10E-05	4.51E-05	0.00012612	-0.000156805	-1.40E-05	-0.000170818	-3.50E-06	2.43E-05	2.08E-05	-0.000167333	-3.20E-05	-0.000199283	-6.86E-05	-2.40E-05	-9.26E-05	-2.23E-05	-9.26E-06	-3.16E-05	3.48E-05	2.38E-05	5.86E-05	-2.36E-17	6.91E-18	-1.67E-17	5.56E-05	5.15E-05	0.000107064	5.35E-06	-1.22E-05	-6.84E-06	0.000133694	4.55E-05	0.000179175	0.000125327	6.17E-05	0.000187051	0.000154372	5.89E-05	0.00021326	-3.82E-05	-1.53E-05	-5.35E-05	1.33E-05	-1.43E-05	-9.65E-07	-6.43E-05	-1.85E-05	-8.28E-05	0
0.8	-7.35E-05	-3.27E-05	-0.000106138	6.38E-05	4.62E-05	0.000109997	-1.79E-17	-4.40E-18	-2.23E-17	4.98E-05	5.92E-05	0.00010902	-4.68E-06	-1.17E-06	-5.85E-06	4.81E-05	2.13E-05	6.94E-05	0.000174927	5.80E-05	0.000232933	-3.34E-05	-1.04E-05	-4.38E-05	9.41E-05	2.83E-05	0.000122423	-2.29E-05	-2.70E-06	-2.56E-05	2.31E-05	-2.02E-06	2.11E-05	-5.22E-06	1.91E-06	-3.31E-06	2.52E-05	3.03E-05	5.55E-05	-1.92E-17	-9.23E-19	-2.01E-17	4.05E-05	5.07E-05	9.12E-05	1.52E-05	2.36E-05	3.88E-05	8.39E-05	5.58E-05	0.000139622	0.000120446	5.48E-05	0.000175267	0.00012096	3.94E-05	0.000160343	3.94E-07	-1.25E-05	-1.21E-05	1.49E-05	-1.48E-05	1.47E-07	1.16E-06	-2.81E-05	-2.69E-05	-9.29E-05	-3.98E-05	-0.000132742	-8.74E-06	8.91E-07	-7.85E-06	5.60E-18	8.40E-19	6.44E-18	5.23E-05	6.07E-05	0.000112929	9.70E-07	1.78E-05	1.88E-05	2.77E-05	2.60E-05	5.36E-05	8.46E-05	4.64E-05	0.000131037	-0.000159242	-1.42E-05	-0.00017347	-2.42E-06	2.48E-05	2.24E-05	-0.000168548	-3.30E-05	-0.000201519	-6.89E-05	-2.41E-05	-9.30E-05	-2.27E-05	-1.01E-05	-3.28E-05	3.44E-05	2.38E-05	5.82E-05	-2.31E-17	6.79E-18	-1.63E-17	5.53E-05	5.01E-05	0.000105352	6.23E-06	-1.18E-05	-5.62E-06	0.000135718	4.63E-05	0.000182012	0.000127075	6.25E-05	0.000189603	0.000155921	5.94E-05	0.000215299	-3.62E-05	-1.42E-05	-5.04E-05	1.57E-05	-1.33E-05	2.40E-06	-6.28E-05	-1.77E-05	-8.05E-05	0
0.84	-7.56E-05	-3.32E-05	-0.000108822	6.43E-05	4.67E-05	0.000111023	-1.82E-17	-4.56E-18	-2.27E-17	5.06E-05	6.04E-05	0.000110967	-5.18E-06	-1.11E-06	-6.29E-06	4.88E-05	2.19E-05	7.07E-05	0.000180024	5.89E-05	0.000238886	-3.45E-05	-1.13E-05	-4.58E-05	9.62E-05	2.84E-05	0.000124589	-2.29E-05	-3.17E-06	-2.61E-05	2.32E-05	-1.95E-06	2.12E-05	-5.24E-06	1.64E-06	-3.60E-06	2.45E-05	3.05E-05	5.51E-05	-1.89E-17	-8.49E-19	-1.98E-17	4.11E-05	5.14E-05	9.25E-05	1.45E-05	2.38E-05	3.83E-05	8.33E-05	5.61E-05	0.000139411	0.000121361	5.57E-05	0.000177035	0.00012272	4.06E-05	0.000163301	-8.52E-07	-1.28E-05	-1.36E-05	1.39E-05	-1.48E-05	-8.27E-07	-2.38E-07	-2.79E-05	-2.82E-05	-9.55E-05	-4.10E-05	-0.000136437	-7.58E-06	1.32E-06	-6.26E-06	5.74E-18	8.75E-19	6.62E-18	5.39E-05	6.25E-05	0.000116424	1.27E-06	1.82E-05	1.95E-05	2.88E-05	2.66E-05	5.54E-05	8.82E-05	4.76E-05	0.000135826	-0.000161534	-1.44E-05	-0.000175975	-1.34E-06	2.53E-05	2.39E-05	-0.000169645	-3.40E-05	-0.00020365	-6.92E-05	-2.42E-05	-9.34E-05	-2.30E-05	-1.08E-05	-3.38E-05	3.40E-05	2.39E-05	5.78E-05	-2.23E-17	6.58E-18	-1.57E-17	5.49E-05	4.88E-05	0.000103694	7.18E-06	-1.15E-05	-4.33E-06	0.000137679	4.71E-05	0.000184748	0.000128809	6.33E-05	0.000192124	0.000157591	5.99E-05	0.000217511	-3.40E-05	-1.31E-05	-4.71E-05	1.82E-05	-1.22E-05	5.94E-06	-6.12E-05	-1.69E-05	-7.81E-05	0
0.88	-7.77E-05	-3.37E-05	-0.000111438	6.48E-05	4.73E-05	0.000112016	-1.82E-17	-4.67E-18	-2.29E-17	5.13E-05	6.15E-05	0.000112864	-5.65E-06	-1.03E-06	-6.67E-06	4.95E-05	2.25E-05	7.20E-05	0.000185349	5.97E-05	0.000245013	-3.54E-05	-1.23E-05	-4.77E-05	9.84E-05	2.84E-05	0.000126828	-2.26E-05	-3.73E-06	-2.63E-05	2.33E-05	-1.88E-06	2.14E-05	-5.27E-06	1.36E-06	-3.91E-06	2.39E-05	3.08E-05	5.47E-05	-1.85E-17	-7.82E-19	-1.92E-17	4.18E-05	5.21E-05	9.39E-05	1.39E-05	2.40E-05	3.78E-05	8.29E-05	5.64E-05	0.000139297	0.000122327	5.66E-05	0.000178879	0.000124453	4.18E-05	0.000166215	-2.15E-06	-1.31E-05	-1.52E-05	1.29E-05	-1.47E-05	-1.82E-06	-1.71E-06	-2.78E-05	-2.95E-05	-9.79E-05	-4.21E-05	-0.000140084	-6.45E-06	1.72E-06	-4.73E-06	5.81E-18	8.97E-19	6.70E-18	5.55E-05	6.43E-05	0.000119843	1.56E-06	1.87E-05	2.02E-05	2.99E-05	2.73E-05	5.72E-05	9.17E-05	4.88E-05	0.000140473	-0.000163686	-1.46E-05	-0.000178335	-2.56E-07	2.57E-05	2.55E-05	-0.000170634	-3.51E-05	-0.000205687	-6.95E-05	-2.43E-05	-9.38E-05	-2.31E-05	-1.14E-05	-3.46E-05	3.36E-05	2.39E-05	5.75E-05	-2.13E-17	6.28E-18	-1.50E-17	5.46E-05	4.75E-05	0.000102106	8.19E-06	-1.12E-05	-2.98E-06	0.000139578	4.78E-05	0.000187383	0.000130526	6.41E-05	0.000194611	0.000159392	6.05E-05	0.000219906	-3.17E-05	-1.19E-05	-4.37E-05	2.09E-05	-1.12E-05	9.64E-06	-5.93E-05	-1.61E-05	-7.55E-05	0
0.92	-7.98E-05	-3.42E-05	-0.000113984	6.52E-05	4.78E-05	0.000112981	-1.81E-17	-4.74E-18	-2.28E-17	5.21E-05	6.26E-05	0.00011471	-6.07E-06	-9.25E-07	-7.00E-06	5.03E-05	2.30E-05	7.33E-05	0.000190905	6.04E-05	0.000251317	-3.63E-05	-1.33E-05	-4.96E-05	0.000100827	2.83E-05	0.00012915	-2.21E-05	-4.36E-06	-2.65E-05	2.35E-05	-1.79E-06	2.17E-05	-5.30E-06	1.06E-06	-4.25E-06	2.33E-05	3.11E-05	5.44E-05	-1.78E-17	-7.22E-19	-1.86E-17	4.26E-05	5.28E-05	9.53E-05	1.32E-05	2.41E-05	3.73E-05	8.25E-05	5.68E-05	0.0001393	0.000123358	5.75E-05	0.000180814	0.000126169	4.29E-05	0.000169093	-3.50E-06	-1.33E-05	-1.68E-05	1.19E-05	-1.47E-05	-2.84E-06	-3.24E-06	-2.76E-05	-3.08E-05	-0.000100368	-4.33E-05	-0.000143679	-5.35E-06	2.09E-06	-3.26E-06	5.78E-18	9.05E-19	6.68E-18	5.71E-05	6.61E-05	0.000123179	1.86E-06	1.91E-05	2.10E-05	3.10E-05	2.79E-05	5.89E-05	9.50E-05	5.00E-05	0.000144968	-0.0001657	-1.49E-05	-0.000180556	8.18E-07	2.61E-05	2.69E-05	-0.000171521	-3.61E-05	-0.000207638	-6.97E-05	-2.44E-05	-9.41E-05	-2.31E-05	-1.19E-05	-3.51E-05	3.33E-05	2.39E-05	5.72E-05	-2.00E-17	5.90E-18	-1.41E-17	5.43E-05	4.63E-05	0.000100604	9.26E-06	-1.08E-05	-1.57E-06	0.000141415	4.85E-05	0.000189914	0.000132225	6.48E-05	0.00019706	0.000161329	6.12E-05	0.000222495	-2.93E-05	-1.08E-05	-4.01E-05	2.37E-05	-1.02E-05	1.35E-05	-5.73E-05	-1.53E-05	-7.27E-05	0
0.96	-8.18E-05	-3.46E-05	-0.000116461	6.57E-05	4.82E-05	0.000113923	-1.77E-17	-4.77E-18	-2.25E-17	5.28E-05	6.37E-05	0.000116505	-6.45E-06	-8.01E-07	-7.25E-06	5.11E-05	2.36E-05	7.47E-05	0.000196692	6.11E-05	0.000257801	-3.70E-05	-1.44E-05	-5.14E-05	0.000103377	2.82E-05	0.000131561	-2.14E-05	-5.07E-06	-2.64E-05	2.37E-05	-1.69E-06	2.20E-05	-5.35E-06	7.41E-07	-4.61E-06	2.27E-05	3.14E-05	5.42E-05	-1.70E-17	-6.68E-19	-1.77E-17	4.33E-05	5.35E-05	9.68E-05	1.26E-05	2.43E-05	3.68E-05	8.23E-05	5.71E-05	0.00013944	0.000124467	5.84E-05	0.000182855	0.000127879	4.41E-05	0.000171944	-4.88E-06	-1.36E-05	-1.85E-05	1.09E-05	-1.47E-05	-3.86E-06	-4.82E-06	-2.73E-05	-3.21E-05	-0.000102731	-4.45E-05	-0.00014722	-4.29E-06	2.42E-06	-1.87E-06	5.67E-18	9.02E-19	6.57E-18	5.86E-05	6.78E-05	0.000126422	2.16E-06	1.95E-05	2.17E-05	3.21E-05	2.86E-05	6.07E-05	9.83E-05	5.10E-05	0.000149302	-0.000167582	-1.51E-05	-0.000182644	1.88E-06	2.65E-05	2.83E-05	-0.000172313	-3.72E-05	-0.000209509	-6.99E-05	-2.46E-05	-9.45E-05	-2.30E-05	-1.23E-05	-3.53E-05	3.31E-05	2.39E-05	5.69E-05	-1.85E-17	5.45E-18	-1.30E-17	5.40E-05	4.52E-05	9.92E-05	1.04E-05	-1.05E-05	-1.11E-07	0.00014319	4.91E-05	0.000192339	0.000133901	6.56E-05	0.000199468	0.000163407	6.19E-05	0.000225283	-2.68E-05	-9.56E-06	-3.63E-05	2.67E-05	-9.15E-06	1.75E-05	-5.52E-05	-1.45E-05	-6.97E-05	0
1	-8.38E-05	-3.51E-05	-0.000118867	6.62E-05	4.87E-05	0.000114849	-1.71E-17	-4.76E-18	-2.19E-17	5.35E-05	6.47E-05	0.000118248	-6.76E-06	-6.56E-07	-7.42E-06	5.20E-05	2.42E-05	7.62E-05	0.000202705	6.18E-05	0.000264465	-3.76E-05	-1.55E-05	-5.31E-05	0.000106093	2.80E-05	0.00013407	-2.04E-05	-5.83E-06	-2.62E-05	2.40E-05	-1.58E-06	2.24E-05	-5.41E-06	4.12E-07	-4.99E-06	2.22E-05	3.18E-05	5.40E-05	-1.61E-17	-6.19E-19	-1.67E-17	4.41E-05	5.43E-05	9.84E-05	1.20E-05	2.44E-05	3.64E-05	8.22E-05	5.75E-05	0.000139733	0.000125667	5.93E-05	0.000185014	0.000129594	4.52E-05	0.000174777	-6.30E-06	-1.38E-05	-2.01E-05	9.84E-06	-1.47E-05	-4.88E-06	-6.44E-06	-2.70E-05	-3.34E-05	-0.000105035	-4.57E-05	-0.000150702	-3.28E-06	2.73E-06	-5.56E-07	5.47E-18	8.85E-19	6.36E-18	6.00E-05	6.96E-05	0.000129565	2.46E-06	2.00E-05	2.24E-05	3.32E-05	2.92E-05	6.24E-05	0.000101388	5.21E-05	0.000153467	-0.000169335	-1.53E-05	-0.000184605	2.93E-06	2.68E-05	2.97E-05	-0.000173015	-3.83E-05	-0.000211308	-7.01E-05	-2.47E-05	-9.48E-05	-2.28E-05	-1.26E-05	-3.54E-05	3.28E-05	2.38E-05	5.67E-05	-1.67E-17	4.92E-18	-1.18E-17	5.37E-05	4.42E-05	9.79E-05	1.16E-05	-1.02E-05	1.39E-06	0.000144902	4.98E-05	0.000194657	0.000135552	6.63E-05	0.000201829	0.000165627	6.26E-05	0.000228273	-2.41E-05	-8.34E-06	-3.24E-05	2.98E-05	-8.13E-06	2.16E-05	-5.28E-05	-1.38E-05	-6.66E-05	0
1.04	-8.57E-05	-3.55E-05	-0.000121202	6.67E-05	4.91E-05	0.000115763	-1.63E-17	-4.69E-18	-2.10E-17	5.42E-05	6.57E-05	0.000119937	-7.01E-06	-4.91E-07	-7.50E-06	5.29E-05	2.47E-05	7.77E-05	0.00020894	6.24E-05	0.000271304	-3.81E-05	-1.66E-05	-5.47E-05	0.000108978	2.77E-05	0.000136682	-1.92E-05	-6.65E-06	-2.59E-05	2.43E-05	-1.46E-06	2.29E-05	-5.47E-06	7.11E-08	-5.40E-06	2.17E-05	3.21E-05	5.38E-05	-1.50E-17	-5.74E-19	-1.56E-17	4.49E-05	5.51E-05	1.00E-04	1.14E-05	2.45E-05	3.59E-05	8.22E-05	5.80E-05	0.000140194	0.000126966	6.03E-05	0.000187303	0.000131324	4.63E-05	0.000177601	-7.74E-06	-1.40E-05	-2.18E-05	8.82E-06	-1.47E-05	-5.90E-06	-8.10E-06	-2.67E-05	-3.48E-05	-0.000107281	-4.68E-05	-0.000154123	-2.32E-06	3.00E-06	6.74E-07	5.19E-18	8.56E-19	6.05E-18	6.14E-05	7.12E-05	0.000132601	2.75E-06	2.04E-05	2.32E-05	3.44E-05	2.98E-05	6.42E-05	0.000104396	5.31E-05	0.000157458	-0.000170966	-1.55E-05	-0.000186445	3.96E-06	2.71E-05	3.10E-05	-0.000173635	-3.94E-05	-0.000213042	-7.02E-05	-2.49E-05	-9.51E-05	-2.24E-05	-1.27E-05	-3.51E-05	3.27E-05	2.38E-05	5.65E-05	-1.48E-17	4.32E-18	-1.05E-17	5.35E-05	4.32E-05	9.67E-05	1.28E-05	-9.86E-06	2.94E-06	0.00014655	5.03E-05	0.000196863	0.000137173	6.70E-05	0.000204135	0.000167989	6.35E-05	0.000231462	-2.13E-05	-7.11E-06	-2.84E-05	3.30E-05	-7.12E-06	2.59E-05	-5.03E-05	-1.30E-05	-6.34E-05	0
1.08	-8.76E-05	-3.59E-05	-0.000123469	6.72E-05	4.95E-05	0.000116669	-1.54E-17	-4.59E-18	-2.00E-17	5.49E-05	6.67E-05	0.000121571	-7.19E-06	-3.06E-07	-7.50E-06	5.39E-05	2.53E-05	7.92E-05	0.000215387	6.29E-05	0.000278315	-3.85E-05	-1.77E-05	-5.62E-05	0.000112031	2.74E-05	0.000139402	-1.79E-05	-7.53E-06	-2.54E-05	2.48E-05	-1.32E-06	2.34E-05	-5.54E-06	-2.81E-07	-5.82E-06	2.13E-05	3.24E-05	5.37E-05	-1.37E-17	-5.32E-19	-1.43E-17	4.58E-05	5.59E-05	0.000101699	1.09E-05	2.46E-05	3.55E-05	8.24E-05	5.84E-05	0.000140835	0.000128376	6.14E-05	0.00018973	0.00013308	4.73E-05	0.000180425	-9.20E-06	-1.43E-05	-2.35E-05	7.82E-06	-1.47E-05	-6.91E-06	-9.78E-06	-2.63E-05	-3.61E-05	-0.000109466	-4.80E-05	-0.000157479	-1.42E-06	3.23E-06	1.81E-06	4.84E-18	8.15E-19	5.65E-18	6.27E-05	7.28E-05	0.000135523	3.05E-06	2.09E-05	2.39E-05	3.55E-05	3.04E-05	6.59E-05	0.00010728	5.40E-05	0.000161272	-0.00017248	-1.57E-05	-0.000188171	4.96E-06	2.73E-05	3.23E-05	-0.000174177	-4.05E-05	-0.000214715	-7.04E-05	-2.51E-05	-9.54E-05	-2.20E-05	-1.27E-05	-3.46E-05	3.26E-05	2.38E-05	5.63E-05	-1.27E-17	3.66E-18	-9.00E-18	5.34E-05	4.23E-05	9.57E-05	1.41E-05	-9.56E-06	4.52E-06	0.000148132	5.08E-05	0.000198956	0.000138758	6.76E-05	0.000206379	0.000170487	6.44E-05	0.000234845	-1.85E-05	-5.88E-06	-2.43E-05	3.64E-05	-6.13E-06	3.02E-05	-4.77E-05	-1.23E-05	-6.00E-05	0
1.12	-8.95E-05	-3.62E-05	-0.000125667	6.78E-05	4.98E-05	0.00011757	-1.43E-17	-4.44E-18	-1.87E-17	5.56E-05	6.76E-05	0.000123149	-7.29E-06	-1.01E-07	-7.39E-06	5.50E-05	2.59E-05	8.08E-05	0.000222034	6.35E-05	0.00028549	-3.88E-05	-1.88E-05	-5.76E-05	0.000115251	2.70E-05	0.000142234	-1.63E-05	-8.43E-06	-2.48E-05	2.52E-05	-1.18E-06	2.41E-05	-5.62E-06	-6.44E-07	-6.26E-06	2.10E-05	3.28E-05	5.37E-05	-1.23E-17	-4.92E-19	-1.28E-17	4.67E-05	5.67E-05	0.000103475	1.04E-05	2.47E-05	3.52E-05	8.27E-05	5.89E-05	0.000141664	0.000129901	6.24E-05	0.000192301	0.00013487	4.84E-05	0.000183258	-1.07E-05	-1.44E-05	-2.51E-05	6.85E-06	-1.47E-05	-7.89E-06	-1.15E-05	-2.59E-05	-3.74E-05	-0.00011159	-4.92E-05	-0.000160767	-5.74E-07	3.43E-06	2.86E-06	4.41E-18	7.63E-19	5.17E-18	6.39E-05	7.44E-05	0.000138324	3.34E-06	2.13E-05	2.47E-05	3.65E-05	3.10E-05	6.75E-05	0.000110039	5.49E-05	0.000164909	-0.000173883	-1.59E-05	-0.00018979	5.94E-06	2.75E-05	3.34E-05	-0.000174645	-4.17E-05	-0.000216332	-7.05E-05	-2.52E-05	-9.58E-05	-2.14E-05	-1.25E-05	-3.39E-05	3.25E-05	2.37E-05	5.62E-05	-1.04E-17	2.96E-18	-7.44E-18	5.32E-05	4.15E-05	9.47E-05	1.54E-05	-9.28E-06	6.13E-06	0.000149648	5.13E-05	0.000200932	0.000140301	6.83E-05	0.000208553	0.000173117	6.53E-05	0.000238412	-1.55E-05	-4.64E-06	-2.02E-05	3.98E-05	-5.16E-06	3.47E-05	-4.49E-05	-1.17E-05	-5.66E-05	0
1.16	-9.12E-05	-3.66E-05	-0.000127799	6.83E-05	5.02E-05	0.000118469	-1.29E-17	-4.25E-18	-1.72E-17	5.62E-05	6.84E-05	0.000124668	-7.30E-06	1.22E-07	-7.18E-06	5.61E-05	2.64E-05	8.25E-05	0.000228868	6.40E-05	0.000292819	-3.89E-05	-2.00E-05	-5.89E-05	0.000118632	2.65E-05	0.00014518	-1.46E-05	-9.37E-06	-2.40E-05	2.58E-05	-1.02E-06	2.48E-05	-5.70E-06	-1.01E-06	-6.72E-06	2.07E-05	3.31E-05	5.38E-05	-1.08E-17	-4.52E-19	-1.13E-17	4.77E-05	5.76E-05	0.000105328	1.00E-05	2.48E-05	3.49E-05	8.32E-05	5.95E-05	0.000142687	0.000131548	6.35E-05	0.00019502	0.000136706	4.94E-05	0.000186109	-1.21E-05	-1.46E-05	-2.67E-05	5.92E-06	-1.48E-05	-8.85E-06	-1.32E-05	-2.55E-05	-3.87E-05	-0.000113653	-5.03E-05	-0.000163986	2.08E-07	3.60E-06	3.80E-06	3.91E-18	6.99E-19	4.61E-18	6.51E-05	7.59E-05	0.000140999	3.63E-06	2.18E-05	2.54E-05	3.76E-05	3.16E-05	6.92E-05	0.000112675	5.57E-05	0.000168368	-0.000175183	-1.61E-05	-0.000191311	6.90E-06	2.77E-05	3.46E-05	-0.000175045	-4.29E-05	-0.000217898	-7.06E-05	-2.55E-05	-9.61E-05	-2.06E-05	-1.23E-05	-3.29E-05	3.25E-05	2.36E-05	5.61E-05	-7.99E-18	2.20E-18	-5.79E-18	5.31E-05	4.07E-05	9.39E-05	1.68E-05	-9.01E-06	7.77E-06	0.000151095	5.17E-05	0.000202788	0.000141797	6.88E-05	0.000210646	0.000175868	6.63E-05	0.00024215	-1.25E-05	-3.40E-06	-1.59E-05	4.34E-05	-4.21E-06	3.92E-05	-4.20E-05	-1.10E-05	-5.30E-05	0
1.2	-9.30E-05	-3.69E-05	-0.000129866	6.89E-05	5.05E-05	0.000119368	-1.15E-17	-4.02E-18	-1.55E-17	5.69E-05	6.92E-05	0.000126128	-7.23E-06	3.64E-07	-6.86E-06	5.73E-05	2.69E-05	8.42E-05	0.000235872	6.44E-05	0.000300289	-3.90E-05	-2.11E-05	-6.01E-05	0.00012217	2.61E-05	0.000148242	-1.27E-05	-1.03E-05	-2.30E-05	2.64E-05	-8.54E-07	2.55E-05	-5.79E-06	-1.39E-06	-7.19E-06	2.05E-05	3.35E-05	5.40E-05	-9.23E-18	-4.11E-19	-9.64E-18	4.87E-05	5.86E-05	0.000107259	9.68E-06	2.49E-05	3.46E-05	8.38E-05	6.01E-05	0.000143908	0.00013332	6.46E-05	0.000197888	0.000138594	5.04E-05	0.000188984	-1.36E-05	-1.48E-05	-2.84E-05	5.04E-06	-1.48E-05	-9.77E-06	-1.49E-05	-2.51E-05	-4.00E-05	-0.000115656	-5.15E-05	-0.000167133	9.24E-07	3.73E-06	4.65E-06	3.35E-18	6.26E-19	3.98E-18	6.62E-05	7.74E-05	0.000143542	3.91E-06	2.22E-05	2.62E-05	3.87E-05	3.21E-05	7.08E-05	0.000115188	5.65E-05	0.000171652	-0.000176385	-1.64E-05	-0.000192741	7.83E-06	2.78E-05	3.56E-05	-0.000175379	-4.40E-05	-0.000219415	-7.08E-05	-2.57E-05	-9.64E-05	-1.98E-05	-1.19E-05	-3.17E-05	3.25E-05	2.35E-05	5.60E-05	-5.49E-18	1.42E-18	-4.07E-18	5.31E-05	4.01E-05	9.32E-05	1.82E-05	-8.75E-06	9.43E-06	0.000152472	5.20E-05	0.000204521	0.000143239	6.94E-05	0.000212648	0.000178731	6.73E-05	0.000246045	-9.40E-06	-2.17E-06	-1.16E-05	4.70E-05	-3.29E-06	4.37E-05	-3.90E-05	-1.04E-05	-4.94E-05	0
1.24	-9.47E-05	-3.72E-05	-0.000131873	6.95E-05	5.07E-05	0.000120267	-9.87E-18	-3.76E-18	-1.36E-17	5.75E-05	7.00E-05	0.000127525	-7.05E-06	6.24E-07	-6.43E-06	5.86E-05	2.75E-05	8.60E-05	0.000243025	6.49E-05	0.000307887	-3.89E-05	-2.23E-05	-6.12E-05	0.000125857	2.56E-05	0.000151419	-1.07E-05	-1.13E-05	-2.20E-05	2.71E-05	-6.71E-07	2.64E-05	-5.89E-06	-1.77E-06	-7.66E-06	2.03E-05	3.39E-05	5.42E-05	-7.54E-18	-3.67E-19	-7.90E-18	4.97E-05	5.96E-05	0.000109264	9.40E-06	2.50E-05	3.44E-05	8.46E-05	6.07E-05	0.000145329	0.000135219	6.57E-05	0.000200906	0.000140542	5.14E-05	0.000191893	-1.50E-05	-1.49E-05	-2.99E-05	4.21E-06	-1.49E-05	-1.06E-05	-1.66E-05	-2.47E-05	-4.12E-05	-0.000117598	-5.26E-05	-0.000170206	1.57E-06	3.83E-06	5.40E-06	2.74E-18	5.44E-19	3.29E-18	6.72E-05	7.88E-05	0.00014595	4.19E-06	2.27E-05	2.69E-05	3.97E-05	3.27E-05	7.24E-05	0.000117584	5.72E-05	0.000174767	-0.000177496	-1.66E-05	-0.000194087	8.74E-06	2.79E-05	3.66E-05	-0.00017565	-4.52E-05	-0.000220886	-7.09E-05	-2.59E-05	-9.68E-05	-1.88E-05	-1.15E-05	-3.03E-05	3.25E-05	2.34E-05	5.59E-05	-2.92E-18	6.10E-19	-2.31E-18	5.31E-05	3.95E-05	9.26E-05	1.96E-05	-8.52E-06	1.11E-05	0.000153775	5.24E-05	0.000206128	0.000144619	6.99E-05	0.00021455	0.000181692	6.84E-05	0.000250076	-6.26E-06	-9.52E-07	-7.22E-06	5.07E-05	-2.40E-06	4.83E-05	-3.59E-05	-9.87E-06	-4.58E-05	0
1.28	-9.63E-05	-3.75E-05	-0.00013382	7.02E-05	5.10E-05	0.000121168	-8.13E-18	-3.46E-18	-1.16E-17	5.81E-05	7.07E-05	0.000128858	-6.78E-06	9.02E-07	-5.88E-06	5.99E-05	2.80E-05	8.79E-05	0.000250307	6.53E-05	0.000315596	-3.87E-05	-2.35E-05	-6.21E-05	0.000129684	2.50E-05	0.000154711	-8.52E-06	-1.22E-05	-2.08E-05	2.79E-05	-4.73E-07	2.74E-05	-5.99E-06	-2.16E-06	-8.15E-06	2.02E-05	3.43E-05	5.45E-05	-5.77E-18	-3.19E-19	-6.09E-18	5.08E-05	6.06E-05	0.000111342	9.18E-06	2.51E-05	3.43E-05	8.56E-05	6.13E-05	0.000146947	0.000137244	6.68E-05	0.000204069	0.000142559	5.23E-05	0.00019484	-1.64E-05	-1.51E-05	-3.15E-05	3.44E-06	-1.49E-05	-1.15E-05	-1.82E-05	-2.42E-05	-4.24E-05	-0.00011948	-5.37E-05	-0.000173203	2.16E-06	3.90E-06	6.06E-06	2.09E-18	4.55E-19	2.54E-18	6.81E-05	8.01E-05	0.000148218	4.46E-06	2.32E-05	2.76E-05	4.08E-05	3.32E-05	7.40E-05	0.000119867	5.79E-05	0.000177719	-0.000178525	-1.68E-05	-0.000195358	9.61E-06	2.80E-05	3.76E-05	-0.000175861	-4.65E-05	-0.000222311	-7.10E-05	-2.62E-05	-9.72E-05	-1.78E-05	-1.09E-05	-2.87E-05	3.26E-05	2.33E-05	5.59E-05	-3.16E-19	-2.14E-19	-5.29E-19	5.31E-05	3.90E-05	9.21E-05	2.11E-05	-8.29E-06	1.28E-05	0.000155003	5.26E-05	0.000207606	0.000145932	7.04E-05	0.000216339	0.000184737	6.95E-05	0.000254221	-3.08E-06	2.56E-07	-2.82E-06	5.44E-05	-1.54E-06	5.29E-05	-3.27E-05	-9.35E-06	-4.20E-05	0
1.32	-9.80E-05	-3.78E-05	-0.000135713	7.08E-05	5.12E-05	0.000122068	-6.29E-18	-3.13E-18	-9.42E-18	5.87E-05	7.14E-05	0.000130124	-6.40E-06	1.20E-06	-5.20E-06	6.13E-05	2.85E-05	8.98E-05	0.000257693	6.57E-05	0.000323397	-3.84E-05	-2.46E-05	-6.30E-05	0.00013364	2.45E-05	0.000158114	-6.25E-06	-1.32E-05	-1.94E-05	2.87E-05	-2.61E-07	2.84E-05	-6.09E-06	-2.55E-06	-8.64E-06	2.02E-05	3.47E-05	5.50E-05	-3.96E-18	-2.66E-19	-4.23E-18	5.19E-05	6.16E-05	0.000113488	9.04E-06	2.52E-05	3.43E-05	8.67E-05	6.20E-05	0.000148758	0.000139394	6.80E-05	0.000207373	0.000144648	5.32E-05	0.000197834	-1.78E-05	-1.52E-05	-3.30E-05	2.75E-06	-1.50E-05	-1.22E-05	-1.98E-05	-2.38E-05	-4.36E-05	-0.000121304	-5.48E-05	-0.000176122	2.67E-06	3.94E-06	6.61E-06	1.40E-18	3.58E-19	1.75E-18	6.90E-05	8.14E-05	0.000150344	4.73E-06	2.36E-05	2.83E-05	4.18E-05	3.37E-05	7.55E-05	0.000122043	5.85E-05	0.000180515	-0.000179478	-1.71E-05	-0.000196561	1.05E-05	2.80E-05	3.85E-05	-0.000176013	-4.77E-05	-0.000223692	-7.11E-05	-2.65E-05	-9.76E-05	-1.67E-05	-1.03E-05	-2.69E-05	3.27E-05	2.31E-05	5.59E-05	2.30E-18	-1.04E-18	1.26E-18	5.32E-05	3.85E-05	9.18E-05	2.26E-05	-8.09E-06	1.45E-05	0.000156154	5.28E-05	0.000208953	0.000147168	7.08E-05	0.000218006	0.000187848	7.06E-05	0.000258458	1.39E-07	1.45E-06	1.59E-06	5.82E-05	-7.14E-07	5.75E-05	-2.94E-05	-8.88E-06	-3.83E-05	0
1.36	-9.95E-05	-3.80E-05	-0.000137554	7.16E-05	5.14E-05	0.000122969	-4.36E-18	-2.78E-18	-7.14E-18	5.93E-05	7.20E-05	0.000131321	-5.91E-06	1.51E-06	-4.40E-06	6.29E-05	2.90E-05	9.18E-05	0.000265158	6.61E-05	0.000331271	-3.80E-05	-2.57E-05	-6.37E-05	0.000137712	2.39E-05	0.000161626	-3.90E-06	-1.41E-05	-1.80E-05	2.96E-05	-3.43E-08	2.96E-05	-6.19E-06	-2.93E-06	-9.13E-06	2.03E-05	3.52E-05	5.55E-05	-2.12E-18	-2.05E-19	-2.33E-18	5.30E-05	6.27E-05	0.000115699	8.96E-06	2.53E-05	3.43E-05	8.80E-05	6.28E-05	0.000150757	0.000141666	6.91E-05	0.000210812	0.000146817	5.41E-05	0.000200879	-1.91E-05	-1.54E-05	-3.44E-05	2.13E-06	-1.51E-05	-1.30E-05	-2.14E-05	-2.33E-05	-4.47E-05	-0.00012307	-5.59E-05	-0.000178963	3.12E-06	3.96E-06	7.08E-06	6.77E-19	2.56E-19	9.33E-19	6.98E-05	8.26E-05	0.000152324	4.98E-06	2.40E-05	2.90E-05	4.28E-05	3.42E-05	7.70E-05	0.000124121	5.90E-05	0.000183165	-0.000180361	-1.73E-05	-0.000197706	1.13E-05	2.80E-05	3.93E-05	-0.000176108	-4.89E-05	-0.000225028	-7.13E-05	-2.68E-05	-9.80E-05	-1.54E-05	-9.54E-06	-2.50E-05	3.29E-05	2.30E-05	5.58E-05	4.88E-18	-1.86E-18	3.02E-18	5.33E-05	3.81E-05	9.15E-05	2.41E-05	-7.89E-06	1.62E-05	0.000157225	5.29E-05	0.000210164	0.000148322	7.12E-05	0.00021954	0.000191007	7.18E-05	0.000262758	3.38E-06	2.62E-06	6.00E-06	6.20E-05	7.38E-08	6.21E-05	-2.60E-05	-8.44E-06	-3.45E-05	0
1.4	-0.000101043	-3.83E-05	-0.000139347	7.23E-05	5.16E-05	0.000123867	-2.36E-18	-2.40E-18	-4.76E-18	5.99E-05	7.26E-05	0.000132448	-5.32E-06	1.84E-06	-3.48E-06	6.44E-05	2.94E-05	9.39E-05	0.000272676	6.65E-05	0.000339196	-3.75E-05	-2.68E-05	-6.43E-05	0.000141887	2.34E-05	0.00016524	-1.49E-06	-1.50E-05	-1.64E-05	3.06E-05	2.09E-07	3.08E-05	-6.29E-06	-3.32E-06	-9.61E-06	2.04E-05	3.56E-05	5.60E-05	-2.73E-19	-1.35E-19	-4.08E-19	5.42E-05	6.38E-05	0.000117967	8.95E-06	2.55E-05	3.44E-05	8.94E-05	6.35E-05	0.000152933	0.000144054	7.03E-05	0.000214375	0.000149068	5.49E-05	0.000203979	-2.03E-05	-1.55E-05	-3.58E-05	1.60E-06	-1.52E-05	-1.36E-05	-2.29E-05	-2.29E-05	-4.58E-05	-0.00012478	-5.69E-05	-0.000181723	3.51E-06	3.95E-06	7.46E-06	-5.89E-20	1.49E-19	9.05E-20	7.05E-05	8.37E-05	0.000154157	5.23E-06	2.45E-05	2.97E-05	4.38E-05	3.47E-05	7.84E-05	0.000126108	5.96E-05	0.000185679	-0.000181183	-1.76E-05	-0.000198798	1.21E-05	2.80E-05	4.01E-05	-0.000176145	-5.02E-05	-0.000226318	-7.14E-05	-2.71E-05	-9.85E-05	-1.41E-05	-8.74E-06	-2.28E-05	3.30E-05	2.28E-05	5.58E-05	7.40E-18	-2.66E-18	4.74E-18	5.35E-05	3.77E-05	9.12E-05	2.56E-05	-7.71E-06	1.79E-05	0.000158215	5.30E-05	0.00021124	0.000149386	7.15E-05	0.000220929	0.000194196	7.29E-05	0.000267094	6.63E-06	3.78E-06	1.04E-05	6.58E-05	8.25E-07	6.66E-05	-2.26E-05	-8.05E-06	-3.07E-05	0
1.44	-0.000102527	-3.86E-05	-0.000141096	7.30E-05	5.17E-05	0.00012476	-3.21E-19	-2.00E-18	-2.32E-18	6.04E-05	7.31E-05	0.000133503	-4.61E-06	2.18E-06	-2.43E-06	6.61E-05	2.99E-05	9.60E-05	0.000280216	6.69E-05	0.000347148	-3.69E-05	-2.79E-05	-6.48E-05	0.000146149	2.28E-05	0.00016895	9.63E-07	-1.58E-05	-1.48E-05	3.17E-05	4.67E-07	3.21E-05	-6.39E-06	-3.70E-06	-1.01E-05	2.06E-05	3.61E-05	5.67E-05	1.57E-18	-5.55E-20	1.51E-18	5.54E-05	6.49E-05	0.000120286	9.01E-06	2.56E-05	3.46E-05	9.10E-05	6.43E-05	0.000155276	0.000146552	7.15E-05	0.000218052	0.000151405	5.57E-05	0.000207139	-2.15E-05	-1.56E-05	-3.71E-05	1.15E-06	-1.53E-05	-1.42E-05	-2.43E-05	-2.25E-05	-4.68E-05	-0.000126435	-5.80E-05	-0.000184403	3.83E-06	3.93E-06	7.76E-06	-8.02E-19	4.01E-20	-7.62E-19	7.11E-05	8.47E-05	0.000155842	5.48E-06	2.49E-05	3.04E-05	4.47E-05	3.51E-05	7.98E-05	0.000128015	6.01E-05	0.00018807	-0.00018195	-1.79E-05	-0.000199846	1.29E-05	2.80E-05	4.09E-05	-0.000176127	-5.14E-05	-0.000227561	-7.15E-05	-2.74E-05	-9.89E-05	-1.27E-05	-7.88E-06	-2.06E-05	3.32E-05	2.26E-05	5.58E-05	9.82E-18	-3.42E-18	6.40E-18	5.37E-05	3.74E-05	9.11E-05	2.71E-05	-7.55E-06	1.96E-05	0.000159121	5.31E-05	0.000212177	0.000150354	7.18E-05	0.000222163	0.000197394	7.40E-05	0.000271438	9.89E-06	4.91E-06	1.48E-05	6.96E-05	1.54E-06	7.11E-05	-1.92E-05	-7.70E-06	-2.69E-05	0
1.48	-0.000103975	-3.88E-05	-0.000142804	7.38E-05	5.18E-05	0.000125647	1.75E-18	-1.58E-18	1.64E-19	6.10E-05	7.35E-05	0.000134483	-3.80E-06	2.54E-06	-1.26E-06	6.78E-05	3.03E-05	9.82E-05	0.00028775	6.74E-05	0.000355102	-3.63E-05	-2.89E-05	-6.52E-05	0.000150482	2.23E-05	0.000172749	3.43E-06	-1.65E-05	-1.31E-05	3.28E-05	7.43E-07	3.35E-05	-6.49E-06	-4.07E-06	-1.06E-05	2.09E-05	3.65E-05	5.75E-05	3.37E-18	3.52E-20	3.41E-18	5.66E-05	6.61E-05	0.000122648	9.14E-06	2.57E-05	3.49E-05	9.26E-05	6.51E-05	0.000157774	0.000149152	7.27E-05	0.000221831	0.000153831	5.65E-05	0.000210362	-2.26E-05	-1.58E-05	-3.84E-05	7.98E-07	-1.54E-05	-1.46E-05	-2.57E-05	-2.21E-05	-4.77E-05	-0.000128038	-5.90E-05	-0.000187	4.09E-06	3.89E-06	7.98E-06	-1.54E-18	-7.07E-20	-1.61E-18	7.16E-05	8.57E-05	0.000157379	5.71E-06	2.53E-05	3.10E-05	4.56E-05	3.55E-05	8.12E-05	0.000129851	6.05E-05	0.000190349	-0.000182669	-1.82E-05	-0.000200857	1.36E-05	2.80E-05	4.16E-05	-0.000176051	-5.27E-05	-0.000228754	-7.17E-05	-2.77E-05	-9.94E-05	-1.13E-05	-6.97E-06	-1.83E-05	3.34E-05	2.24E-05	5.58E-05	1.21E-17	-4.15E-18	7.96E-18	5.39E-05	3.71E-05	9.10E-05	2.87E-05	-7.40E-06	2.13E-05	0.000159942	5.30E-05	0.000212975	0.000151219	7.20E-05	0.000223234	0.000200582	7.52E-05	0.000275758	1.31E-05	6.01E-06	1.92E-05	7.34E-05	2.21E-06	7.56E-05	-1.57E-05	-7.39E-06	-2.30E-05	0
1.52	-0.000105387	-3.91E-05	-0.000144475	7.46E-05	5.19E-05	0.000126522	3.81E-18	-1.16E-18	2.66E-18	6.14E-05	7.39E-05	0.000135388	-2.87E-06	2.91E-06	3.95E-08	6.96E-05	3.08E-05	0.00010041	0.000295248	6.78E-05	0.000363035	-3.55E-05	-2.99E-05	-6.54E-05	0.000154869	2.18E-05	0.000176628	5.89E-06	-1.72E-05	-1.13E-05	3.40E-05	1.03E-06	3.50E-05	-6.58E-06	-4.44E-06	-1.10E-05	2.12E-05	3.70E-05	5.83E-05	5.12E-18	1.38E-19	5.26E-18	5.78E-05	6.73E-05	0.000125044	9.33E-06	2.59E-05	3.52E-05	9.44E-05	6.60E-05	0.000160412	0.000151844	7.39E-05	0.000225698	0.000156344	5.73E-05	0.000213648	-2.36E-05	-1.59E-05	-3.95E-05	5.41E-07	-1.56E-05	-1.50E-05	-2.69E-05	-2.17E-05	-4.86E-05	-0.000129589	-5.99E-05	-0.000189515	4.29E-06	3.83E-06	8.12E-06	-2.27E-18	-1.82E-19	-2.45E-18	7.21E-05	8.66E-05	0.000158769	5.93E-06	2.57E-05	3.17E-05	4.65E-05	3.59E-05	8.25E-05	0.000131627	6.09E-05	0.000192531	-0.000183346	-1.85E-05	-0.000201838	1.44E-05	2.79E-05	4.23E-05	-0.000175919	-5.40E-05	-0.000229896	-7.19E-05	-2.81E-05	-1.00E-04	-9.80E-06	-6.02E-06	-1.58E-05	3.36E-05	2.22E-05	5.58E-05	1.43E-17	-4.83E-18	9.42E-18	5.41E-05	3.68E-05	9.09E-05	3.02E-05	-7.26E-06	2.29E-05	0.000160677	5.30E-05	0.000213634	0.000151977	7.22E-05	0.000224132	0.000203737	7.63E-05	0.000280024	1.64E-05	7.09E-06	2.35E-05	7.71E-05	2.85E-06	8.00E-05	-1.21E-05	-7.11E-06	-1.92E-05	0
1.56	-0.000106766	-3.93E-05	-0.000146113	7.54E-05	5.20E-05	0.000127383	5.86E-18	-7.25E-19	5.14E-18	6.19E-05	7.43E-05	0.000136217	-1.84E-06	3.30E-06	1.46E-06	7.15E-05	3.12E-05	0.000102693	0.000302678	6.82E-05	0.000370918	-3.47E-05	-3.09E-05	-6.56E-05	0.000159291	2.13E-05	0.000180576	8.33E-06	-1.77E-05	-9.41E-06	3.52E-05	1.34E-06	3.66E-05	-6.67E-06	-4.80E-06	-1.15E-05	2.16E-05	3.75E-05	5.92E-05	6.80E-18	2.54E-19	7.06E-18	5.90E-05	6.85E-05	0.000127467	9.59E-06	2.61E-05	3.56E-05	9.63E-05	6.69E-05	0.000163174	0.000154619	7.50E-05	0.000229638	0.000158946	5.81E-05	0.000216999	-2.46E-05	-1.60E-05	-4.06E-05	3.81E-07	-1.57E-05	-1.54E-05	-2.81E-05	-2.14E-05	-4.94E-05	-0.000131091	-6.09E-05	-0.000191947	4.44E-06	3.77E-06	8.21E-06	-2.98E-18	-2.92E-19	-3.27E-18	7.25E-05	8.75E-05	0.000160011	6.15E-06	2.61E-05	3.23E-05	4.74E-05	3.63E-05	8.37E-05	0.000133355	6.13E-05	0.000194628	-0.000183988	-1.88E-05	-0.000202796	1.51E-05	2.78E-05	4.29E-05	-0.000175729	-5.53E-05	-0.000230982	-7.20E-05	-2.84E-05	-0.000100485	-8.27E-06	-5.05E-06	-1.33E-05	3.38E-05	2.19E-05	5.58E-05	1.62E-17	-5.44E-18	1.08E-17	5.44E-05	3.65E-05	9.09E-05	3.17E-05	-7.12E-06	2.46E-05	0.000161325	5.28E-05	0.000214152	0.000152621	7.22E-05	0.00022485	0.000206839	7.74E-05	0.000284206	1.96E-05	8.14E-06	2.77E-05	8.08E-05	3.45E-06	8.42E-05	-8.58E-06	-6.88E-06	-1.55E-05	0
1.6	-0.000108114	-3.96E-05	-0.00014772	7.62E-05	5.20E-05	0.000128225	7.87E-18	-2.91E-19	7.57E-18	6.23E-05	7.46E-05	0.000136969	-6.97E-07	3.70E-06	3.00E-06	7.35E-05	3.16E-05	0.000105022	0.000310009	6.87E-05	0.000378726	-3.39E-05	-3.18E-05	-6.56E-05	0.000163729	2.09E-05	0.000184583	1.07E-05	-1.82E-05	-7.50E-06	3.65E-05	1.67E-06	3.82E-05	-6.75E-06	-5.14E-06	-1.19E-05	2.21E-05	3.81E-05	6.02E-05	8.39E-18	3.83E-19	8.78E-18	6.02E-05	6.97E-05	0.000129904	9.91E-06	2.62E-05	3.62E-05	9.83E-05	6.77E-05	0.000166044	0.000157465	7.62E-05	0.000233635	0.000161635	5.88E-05	0.000220414	-2.54E-05	-1.62E-05	-4.16E-05	3.22E-07	-1.59E-05	-1.56E-05	-2.91E-05	-2.10E-05	-5.02E-05	-0.000132546	-6.18E-05	-0.000194296	4.54E-06	3.70E-06	8.24E-06	-3.65E-18	-3.99E-19	-4.05E-18	7.29E-05	8.83E-05	0.000161109	6.36E-06	2.65E-05	3.29E-05	4.83E-05	3.67E-05	8.49E-05	0.000135045	6.16E-05	0.000196656	-0.0001846	-1.91E-05	-0.000203736	1.58E-05	2.78E-05	4.36E-05	-0.000175481	-5.65E-05	-0.000232011	-7.22E-05	-2.88E-05	-0.000101032	-6.71E-06	-4.06E-06	-1.08E-05	3.40E-05	2.17E-05	5.57E-05	1.79E-17	-5.99E-18	1.19E-17	5.46E-05	3.62E-05	9.08E-05	3.32E-05	-7.00E-06	2.62E-05	0.000161887	5.26E-05	0.000214533	0.00015315	7.22E-05	0.000225382	0.000209868	7.84E-05	0.000288274	2.28E-05	9.16E-06	3.19E-05	8.44E-05	4.01E-06	8.84E-05	-5.03E-06	-6.67E-06	-1.17E-05	0
