time	2HRF HbO_1_1	2HRF HbR_1_1	2HRF HbT_1_1	2HRF HbO_1_2	2HRF HbR_1_2	2HRF HbT_1_2	2HRF HbO_2_1	2HRF HbR_2_1	2HRF HbT_2_1	2HRF HbO_3_1	2HRF HbR_3_1	2HRF HbT_3_1	2HRF HbO_3_2	2HRF HbR_3_2	2HRF HbT_3_2	2HRF HbO_3_4	2HRF HbR_3_4	2HRF HbT_3_4	2HRF HbO_4_2	2HRF HbR_4_2	2HRF HbT_4_2	2HRF HbO_4_3	2HRF HbR_4_3	2HRF HbT_4_3	2HRF HbO_4_4	2HRF HbR_4_4	2HRF HbT_4_4	2HRF HbO_5_3	2HRF HbR_5_3	2HRF HbT_5_3	2HRF HbO_5_4	2HRF HbR_5_4	2HRF HbT_5_4	2HRF HbO_6_5	2HRF HbR_6_5	2HRF HbT_6_5	2HRF HbO_6_6	2HRF HbR_6_6	2HRF HbT_6_6	2HRF HbO_7_5	2HRF HbR_7_5	2HRF HbT_7_5	2HRF HbO_8_5	2HRF HbR_8_5	2HRF HbT_8_5	2HRF HbO_8_6	2HRF HbR_8_6	2HRF HbT_8_6	2HRF HbO_8_7	2HRF HbR_8_7	2HRF HbT_8_7	2HRF HbO_9_6	2HRF HbR_9_6	2HRF HbT_9_6	2HRF HbO_9_7	2HRF HbR_9_7	2HRF HbT_9_7	2HRF HbO_9_8	2HRF HbR_9_8	2HRF HbT_9_8	2HRF HbO_10_7	2HRF HbR_10_7	2HRF HbT_10_7	2HRF HbO_10_8	2HRF HbR_10_8	2HRF HbT_10_8	3HRF HbO_1_1	3HRF HbR_1_1	3HRF HbT_1_1	3HRF HbO_1_2	3HRF HbR_1_2	3HRF HbT_1_2	3HRF HbO_2_1	3HRF HbR_2_1	3HRF HbT_2_1	3HRF HbO_3_1	3HRF HbR_3_1	3HRF HbT_3_1	3HRF HbO_3_2	3HRF HbR_3_2	3HRF HbT_3_2	3HRF HbO_3_4	3HRF HbR_3_4	3HRF HbT_3_4	3HRF HbO_4_2	3HRF HbR_4_2	3HRF HbT_4_2	3HRF HbO_4_3	3HRF HbR_4_3	3HRF HbT_4_3	3HRF HbO_4_4	3HRF HbR_4_4	3HRF HbT_4_4	3HRF HbO_5_3	3HRF HbR_5_3	3HRF HbT_5_3	3HRF HbO_5_4	3HRF HbR_5_4	3HRF HbT_5_4	3HRF HbO_6_5	3HRF HbR_6_5	3HRF HbT_6_5	3HRF HbO_6_6	3HRF HbR_6_6	3HRF HbT_6_6	3HRF HbO_7_5	3HRF HbR_7_5	3HRF HbT_7_5	3HRF HbO_8_5	3HRF HbR_8_5	3HRF HbT_8_5	3HRF HbO_8_6	3HRF HbR_8_6	3HRF HbT_8_6	3HRF HbO_8_7	3HRF HbR_8_7	3HRF HbT_8_7	3HRF HbO_9_6	3HRF HbR_9_6	3HRF HbT_9_6	3HRF HbO_9_7	3HRF HbR_9_7	3HRF HbT_9_7	3HRF HbO_9_8	3HRF HbR_9_8	3HRF HbT_9_8	3HRF HbO_10_7	3HRF HbR_10_7	3HRF HbT_10_7	3HRF HbO_10_8	3HRF HbR_10_8	3HRF HbT_10_8	status
-2	1.38E-05	-4.27E-05	-2.88E-05	-9.01E-05	-6.54E-05	-0.00015552	2.78E-17	1.15E-17	3.93E-17	-0.000176622	-0.00013127	-0.000307892	-5.93E-05	-7.88E-05	-0.000138069	-2.73E-05	-5.56E-05	-8.29E-05	2.83E-05	6.38E-07	2.89E-05	5.10E-05	3.32E-06	5.43E-05	4.19E-05	9.70E-06	5.16E-05	5.00E-05	4.98E-06	5.50E-05	8.53E-05	1.55E-05	0.000100756	-3.93E-05	-4.49E-05	-8.42E-05	-7.26E-05	-5.34E-05	-0.00012601	8.65E-18	5.48E-18	1.41E-17	-0.000103819	-4.72E-05	-0.000150991	-8.63E-05	-5.03E-05	-0.000136585	-3.57E-06	-8.81E-06	-1.24E-05	-7.67E-07	7.27E-06	6.50E-06	3.62E-06	8.54E-06	1.22E-05	1.18E-05	5.96E-06	1.77E-05	-1.12E-06	1.03E-05	9.20E-06	1.18E-05	4.91E-07	1.23E-05	1.87E-05	-1.99E-05	-1.18E-06	-6.69E-05	-3.62E-05	-0.000103078	1.32E-17	4.48E-18	1.77E-17	-8.42E-05	-5.45E-05	-0.000138744	-0.000112756	-4.18E-05	-0.000154601	-5.19E-05	-1.78E-05	-6.97E-05	7.55E-06	6.44E-06	1.40E-05	1.77E-05	-1.33E-07	1.75E-05	2.79E-05	8.14E-06	3.60E-05	-3.58E-06	3.00E-06	-5.74E-07	2.89E-05	6.34E-06	3.53E-05	-1.01E-07	-2.72E-05	-2.73E-05	-1.51E-05	-2.46E-05	-3.97E-05	-2.36E-17	-1.62E-18	-2.52E-17	-6.38E-06	-1.51E-05	-2.15E-05	1.21E-07	-1.84E-05	-1.83E-05	1.34E-05	1.00E-06	1.44E-05	3.01E-06	5.97E-06	8.98E-06	4.24E-06	2.11E-06	6.35E-06	-2.20E-06	2.41E-06	2.10E-07	-1.09E-06	3.90E-06	2.81E-06	9.60E-06	-1.16E-06	8.45E-06	1
-1.96	1.35E-05	-3.79E-05	-2.43E-05	-9.28E-05	-6.32E-05	-0.000156026	2.66E-17	1.15E-17	3.81E-17	-0.000179026	-0.000128485	-0.000307511	-6.61E-05	-7.76E-05	-0.000143635	-3.18E-05	-5.57E-05	-8.75E-05	2.51E-05	1.55E-06	2.66E-05	4.77E-05	2.62E-06	5.04E-05	4.07E-05	9.73E-06	5.05E-05	4.62E-05	4.09E-06	5.03E-05	8.41E-05	1.53E-05	9.94E-05	-4.25E-05	-4.42E-05	-8.67E-05	-7.48E-05	-5.13E-05	-0.000126109	7.36E-18	4.67E-18	1.20E-17	-0.000100027	-4.44E-05	-0.000144384	-8.66E-05	-4.82E-05	-0.000134809	-9.39E-07	-7.10E-06	-8.04E-06	-5.00E-07	7.63E-06	7.13E-06	3.57E-06	7.93E-06	1.15E-05	1.06E-05	5.67E-06	1.63E-05	-1.17E-06	9.69E-06	8.51E-06	1.01E-05	-4.33E-07	9.71E-06	1.75E-05	-1.77E-05	-2.58E-07	-6.41E-05	-3.42E-05	-9.83E-05	1.36E-17	4.33E-18	1.80E-17	-7.77E-05	-4.99E-05	-0.000127622	-0.00010721	-3.99E-05	-0.000147133	-4.98E-05	-1.73E-05	-6.71E-05	6.89E-06	5.85E-06	1.27E-05	1.65E-05	7.67E-08	1.65E-05	2.53E-05	7.48E-06	3.28E-05	-4.21E-06	3.54E-06	-6.64E-07	2.69E-05	5.85E-06	3.27E-05	7.58E-07	-2.36E-05	-2.29E-05	-1.46E-05	-2.26E-05	-3.73E-05	-2.38E-17	-1.51E-18	-2.53E-17	-6.68E-06	-1.38E-05	-2.05E-05	-8.76E-07	-1.69E-05	-1.78E-05	1.17E-05	7.60E-07	1.24E-05	1.99E-06	5.76E-06	7.75E-06	3.39E-06	2.09E-06	5.48E-06	-2.45E-06	2.33E-06	-1.18E-07	-1.36E-06	3.74E-06	2.38E-06	8.83E-06	-1.21E-06	7.62E-06	1
-1.92	1.32E-05	-3.32E-05	-2.00E-05	-9.53E-05	-6.09E-05	-0.000156169	2.55E-17	1.14E-17	3.68E-17	-0.000180939	-0.0001255	-0.000306439	-7.25E-05	-7.63E-05	-0.000148725	-3.60E-05	-5.57E-05	-9.17E-05	2.19E-05	2.41E-06	2.43E-05	4.45E-05	1.95E-06	4.64E-05	3.95E-05	9.74E-06	4.92E-05	4.23E-05	3.23E-06	4.56E-05	8.28E-05	1.50E-05	9.79E-05	-4.55E-05	-4.35E-05	-8.90E-05	-7.67E-05	-4.92E-05	-0.000125892	6.11E-18	3.88E-18	9.99E-18	-9.61E-05	-4.15E-05	-0.000137648	-8.67E-05	-4.61E-05	-0.000132778	1.59E-06	-5.45E-06	-3.87E-06	-2.44E-07	7.96E-06	7.71E-06	3.51E-06	7.31E-06	1.08E-05	9.44E-06	5.36E-06	1.48E-05	-1.23E-06	9.06E-06	7.83E-06	8.48E-06	-1.33E-06	7.15E-06	1.63E-05	-1.56E-05	6.35E-07	-6.12E-05	-3.23E-05	-9.35E-05	1.40E-17	4.16E-18	1.82E-17	-7.13E-05	-4.53E-05	-0.000116574	-0.000101597	-3.80E-05	-0.000139569	-4.76E-05	-1.67E-05	-6.44E-05	6.23E-06	5.27E-06	1.15E-05	1.52E-05	2.76E-07	1.55E-05	2.28E-05	6.83E-06	2.96E-05	-4.80E-06	4.05E-06	-7.50E-07	2.48E-05	5.35E-06	3.02E-05	1.60E-06	-2.02E-05	-1.86E-05	-1.42E-05	-2.07E-05	-3.49E-05	-2.38E-17	-1.41E-18	-2.53E-17	-6.95E-06	-1.25E-05	-1.95E-05	-1.84E-06	-1.55E-05	-1.73E-05	9.98E-06	5.19E-07	1.05E-05	9.95E-07	5.54E-06	6.53E-06	2.57E-06	2.06E-06	4.63E-06	-2.69E-06	2.25E-06	-4.37E-07	-1.63E-06	3.58E-06	1.95E-06	8.06E-06	-1.25E-06	6.81E-06	1
-1.88	1.28E-05	-2.85E-05	-1.57E-05	-9.74E-05	-5.85E-05	-0.000155924	2.42E-17	1.12E-17	3.54E-17	-0.00018232	-0.000122307	-0.000304627	-7.85E-05	-7.48E-05	-0.000153289	-4.00E-05	-5.55E-05	-9.56E-05	1.88E-05	3.23E-06	2.20E-05	4.12E-05	1.29E-06	4.25E-05	3.82E-05	9.71E-06	4.79E-05	3.85E-05	2.40E-06	4.09E-05	8.14E-05	1.48E-05	9.61E-05	-4.82E-05	-4.27E-05	-9.09E-05	-7.84E-05	-4.70E-05	-0.000125335	4.90E-18	3.12E-18	8.03E-18	-9.21E-05	-3.87E-05	-0.000130793	-8.65E-05	-4.39E-05	-0.000130478	4.00E-06	-3.86E-06	1.38E-07	4.65E-10	8.25E-06	8.25E-06	3.44E-06	6.70E-06	1.01E-05	8.30E-06	5.06E-06	1.34E-05	-1.29E-06	8.42E-06	7.14E-06	6.85E-06	-2.18E-06	4.67E-06	1.50E-05	-1.36E-05	1.50E-06	-5.82E-05	-3.04E-05	-8.86E-05	1.43E-17	3.99E-18	1.83E-17	-6.49E-05	-4.08E-05	-0.000105636	-9.59E-05	-3.60E-05	-0.000131925	-4.55E-05	-1.62E-05	-6.16E-05	5.58E-06	4.69E-06	1.03E-05	1.40E-05	4.65E-07	1.45E-05	2.03E-05	6.18E-06	2.65E-05	-5.35E-06	4.52E-06	-8.33E-07	2.28E-05	4.85E-06	2.77E-05	2.41E-06	-1.68E-05	-1.44E-05	-1.37E-05	-1.88E-05	-3.25E-05	-2.38E-17	-1.32E-18	-2.51E-17	-7.19E-06	-1.13E-05	-1.85E-05	-2.78E-06	-1.41E-05	-1.68E-05	8.34E-06	2.81E-07	8.62E-06	3.01E-08	5.31E-06	5.34E-06	1.76E-06	2.04E-06	3.79E-06	-2.91E-06	2.16E-06	-7.45E-07	-1.90E-06	3.42E-06	1.52E-06	7.28E-06	-1.28E-06	5.99E-06	1
-1.84	1.24E-05	-2.40E-05	-1.16E-05	-9.92E-05	-5.61E-05	-0.000155263	2.29E-17	1.10E-17	3.40E-17	-0.00018313	-0.000118901	-0.000302032	-8.40E-05	-7.33E-05	-0.000157277	-4.38E-05	-5.52E-05	-9.90E-05	1.57E-05	3.99E-06	1.97E-05	3.79E-05	6.59E-07	3.86E-05	3.69E-05	9.66E-06	4.66E-05	3.48E-05	1.59E-06	3.63E-05	7.97E-05	1.45E-05	9.42E-05	-5.07E-05	-4.17E-05	-9.24E-05	-7.97E-05	-4.47E-05	-0.000124419	3.74E-18	2.39E-18	6.14E-18	-8.80E-05	-3.59E-05	-0.000123831	-8.61E-05	-4.18E-05	-0.000127898	6.27E-06	-2.33E-06	3.95E-06	2.32E-07	8.49E-06	8.72E-06	3.38E-06	6.10E-06	9.47E-06	7.17E-06	4.75E-06	1.19E-05	-1.34E-06	7.79E-06	6.45E-06	5.27E-06	-3.00E-06	2.27E-06	1.38E-05	-1.15E-05	2.33E-06	-5.53E-05	-2.84E-05	-8.37E-05	1.46E-17	3.80E-18	1.83E-17	-5.85E-05	-3.63E-05	-9.48E-05	-9.02E-05	-3.40E-05	-0.000124216	-4.33E-05	-1.56E-05	-5.88E-05	4.94E-06	4.11E-06	9.05E-06	1.28E-05	6.42E-07	1.35E-05	1.78E-05	5.54E-06	2.34E-05	-5.87E-06	4.95E-06	-9.13E-07	2.08E-05	4.36E-06	2.52E-05	3.20E-06	-1.35E-05	-1.03E-05	-1.32E-05	-1.69E-05	-3.01E-05	-2.36E-17	-1.23E-18	-2.49E-17	-7.41E-06	-1.00E-05	-1.74E-05	-3.68E-06	-1.26E-05	-1.63E-05	6.72E-06	4.82E-08	6.77E-06	-8.99E-07	5.08E-06	4.18E-06	9.73E-07	2.00E-06	2.97E-06	-3.12E-06	2.07E-06	-1.04E-06	-2.15E-06	3.25E-06	1.10E-06	6.50E-06	-1.30E-06	5.19E-06	1
-1.8	1.20E-05	-1.96E-05	-7.65E-06	-0.000100581	-5.36E-05	-0.000154161	2.16E-17	1.08E-17	3.24E-17	-0.000183331	-0.000115279	-0.00029861	-8.91E-05	-7.15E-05	-0.000160642	-4.72E-05	-5.48E-05	-0.000102048	1.27E-05	4.68E-06	1.74E-05	3.47E-05	5.10E-08	3.48E-05	3.55E-05	9.58E-06	4.51E-05	3.10E-05	8.09E-07	3.19E-05	7.78E-05	1.42E-05	9.20E-05	-5.28E-05	-4.07E-05	-9.35E-05	-8.07E-05	-4.24E-05	-0.000123125	2.64E-18	1.69E-18	4.34E-18	-8.37E-05	-3.30E-05	-0.000116773	-8.55E-05	-3.95E-05	-0.000125027	8.41E-06	-8.71E-07	7.54E-06	4.48E-07	8.69E-06	9.14E-06	3.30E-06	5.49E-06	8.79E-06	6.07E-06	4.44E-06	1.05E-05	-1.40E-06	7.15E-06	5.75E-06	3.75E-06	-3.78E-06	-2.89E-08	1.27E-05	-9.54E-06	3.12E-06	-5.22E-05	-2.65E-05	-7.87E-05	1.47E-17	3.59E-18	1.83E-17	-5.23E-05	-3.19E-05	-8.42E-05	-8.45E-05	-3.20E-05	-0.000116459	-4.10E-05	-1.50E-05	-5.60E-05	4.31E-06	3.55E-06	7.86E-06	1.17E-05	8.06E-07	1.25E-05	1.54E-05	4.92E-06	2.03E-05	-6.33E-06	5.35E-06	-9.88E-07	1.88E-05	3.87E-06	2.27E-05	3.95E-06	-1.03E-05	-6.33E-06	-1.27E-05	-1.51E-05	-2.77E-05	-2.34E-17	-1.15E-18	-2.45E-17	-7.59E-06	-8.77E-06	-1.64E-05	-4.53E-06	-1.13E-05	-1.58E-05	5.15E-06	-1.80E-07	4.97E-06	-1.79E-06	4.84E-06	3.05E-06	2.17E-07	1.96E-06	2.18E-06	-3.30E-06	1.98E-06	-1.33E-06	-2.39E-06	3.08E-06	6.92E-07	5.71E-06	-1.31E-06	4.40E-06	1
-1.76	1.15E-05	-1.54E-05	-3.89E-06	-0.000101553	-5.10E-05	-0.000152596	2.02E-17	1.05E-17	3.07E-17	-0.000182886	-0.000111435	-0.000294321	-9.36E-05	-6.97E-05	-0.000163337	-5.04E-05	-5.42E-05	-0.000104592	9.84E-06	5.32E-06	1.52E-05	3.15E-05	-5.28E-07	3.10E-05	3.41E-05	9.46E-06	4.35E-05	2.74E-05	6.65E-08	2.75E-05	7.58E-05	1.38E-05	8.96E-05	-5.47E-05	-3.96E-05	-9.43E-05	-8.13E-05	-4.01E-05	-0.000121433	1.60E-18	1.03E-18	2.63E-18	-7.94E-05	-3.02E-05	-0.000109631	-8.46E-05	-3.73E-05	-0.000121856	1.04E-05	5.05E-07	1.09E-05	6.49E-07	8.85E-06	9.50E-06	3.22E-06	4.90E-06	8.12E-06	4.99E-06	4.13E-06	9.13E-06	-1.45E-06	6.51E-06	5.06E-06	2.28E-06	-4.50E-06	-2.22E-06	1.15E-05	-7.61E-06	3.86E-06	-4.92E-05	-2.45E-05	-7.37E-05	1.48E-17	3.38E-18	1.82E-17	-4.62E-05	-2.77E-05	-7.39E-05	-7.87E-05	-3.00E-05	-0.000108669	-3.88E-05	-1.43E-05	-5.31E-05	3.70E-06	2.99E-06	6.68E-06	1.05E-05	9.55E-07	1.14E-05	1.31E-05	4.31E-06	1.74E-05	-6.75E-06	5.69E-06	-1.06E-06	1.69E-05	3.38E-06	2.02E-05	4.67E-06	-7.20E-06	-2.53E-06	-1.21E-05	-1.33E-05	-2.54E-05	-2.29E-17	-1.08E-18	-2.40E-17	-7.73E-06	-7.57E-06	-1.53E-05	-5.34E-06	-9.91E-06	-1.52E-05	3.63E-06	-4.01E-07	3.23E-06	-2.63E-06	4.59E-06	1.96E-06	-5.07E-07	1.91E-06	1.41E-06	-3.47E-06	1.88E-06	-1.59E-06	-2.62E-06	2.91E-06	2.89E-07	4.93E-06	-1.31E-06	3.63E-06	1
-1.72	1.10E-05	-1.13E-05	-3.37E-07	-0.00010209	-4.85E-05	-0.000150545	1.87E-17	1.01E-17	2.89E-17	-0.000181763	-0.000107367	-0.000289129	-9.76E-05	-6.77E-05	-0.000165317	-5.32E-05	-5.34E-05	-0.000106627	7.04E-06	5.89E-06	1.29E-05	2.84E-05	-1.07E-06	2.73E-05	3.26E-05	9.32E-06	4.19E-05	2.38E-05	-6.36E-07	2.32E-05	7.35E-05	1.34E-05	8.70E-05	-5.62E-05	-3.83E-05	-9.45E-05	-8.16E-05	-3.77E-05	-0.000119329	6.24E-19	4.11E-19	1.03E-18	-7.49E-05	-2.75E-05	-0.00010242	-8.34E-05	-3.50E-05	-0.000118376	1.22E-05	1.79E-06	1.40E-05	8.33E-07	8.95E-06	9.78E-06	3.14E-06	4.31E-06	7.45E-06	3.95E-06	3.82E-06	7.77E-06	-1.50E-06	5.88E-06	4.38E-06	8.86E-07	-5.17E-06	-4.28E-06	1.03E-05	-5.76E-06	4.56E-06	-4.61E-05	-2.26E-05	-6.87E-05	1.48E-17	3.15E-18	1.80E-17	-4.02E-05	-2.35E-05	-6.37E-05	-7.29E-05	-2.79E-05	-0.000100863	-3.65E-05	-1.37E-05	-5.02E-05	3.10E-06	2.44E-06	5.54E-06	9.34E-06	1.09E-06	1.04E-05	1.08E-05	3.71E-06	1.45E-05	-7.11E-06	5.99E-06	-1.12E-06	1.49E-05	2.91E-06	1.78E-05	5.35E-06	-4.23E-06	1.11E-06	-1.16E-05	-1.15E-05	-2.31E-05	-2.24E-17	-1.01E-18	-2.34E-17	-7.83E-06	-6.40E-06	-1.42E-05	-6.09E-06	-8.61E-06	-1.47E-05	2.17E-06	-6.15E-07	1.55E-06	-3.43E-06	4.34E-06	9.13E-07	-1.20E-06	1.86E-06	6.66E-07	-3.62E-06	1.78E-06	-1.85E-06	-2.84E-06	2.73E-06	-1.04E-07	4.16E-06	-1.29E-06	2.87E-06	1
-1.68	1.04E-05	-7.43E-06	2.99E-06	-0.000102168	-4.58E-05	-0.000147988	1.73E-17	9.72E-18	2.70E-17	-0.000179929	-0.000103073	-0.000283001	-0.000100987	-6.56E-05	-0.000166539	-5.56E-05	-5.25E-05	-0.000108124	4.35E-06	6.38E-06	1.07E-05	2.53E-05	-1.59E-06	2.37E-05	3.10E-05	9.13E-06	4.01E-05	2.03E-05	-1.30E-06	1.90E-05	7.11E-05	1.30E-05	8.41E-05	-5.74E-05	-3.69E-05	-9.44E-05	-8.15E-05	-3.53E-05	-0.000116798	-2.81E-19	-1.70E-19	-4.51E-19	-7.04E-05	-2.47E-05	-9.52E-05	-8.18E-05	-3.27E-05	-0.00011458	1.38E-05	2.99E-06	1.68E-05	9.98E-07	9.00E-06	1.00E-05	3.05E-06	3.73E-06	6.78E-06	2.94E-06	3.51E-06	6.46E-06	-1.54E-06	5.25E-06	3.70E-06	-4.36E-07	-5.78E-06	-6.22E-06	9.19E-06	-3.98E-06	5.21E-06	-4.30E-05	-2.07E-05	-6.37E-05	1.48E-17	2.91E-18	1.77E-17	-3.44E-05	-1.95E-05	-5.39E-05	-6.72E-05	-2.59E-05	-9.31E-05	-3.42E-05	-1.30E-05	-4.72E-05	2.52E-06	1.91E-06	4.43E-06	8.22E-06	1.21E-06	9.43E-06	8.55E-06	3.14E-06	1.17E-05	-7.42E-06	6.24E-06	-1.18E-06	1.30E-05	2.44E-06	1.55E-05	5.98E-06	-1.41E-06	4.57E-06	-1.10E-05	-9.82E-06	-2.08E-05	-2.18E-17	-9.55E-19	-2.27E-17	-7.90E-06	-5.28E-06	-1.32E-05	-6.78E-06	-7.34E-06	-1.41E-05	7.61E-07	-8.20E-07	-5.88E-08	-4.17E-06	4.09E-06	-8.50E-08	-1.85E-06	1.80E-06	-4.30E-08	-3.75E-06	1.67E-06	-2.08E-06	-3.04E-06	2.55E-06	-4.83E-07	3.40E-06	-1.26E-06	2.14E-06	1
-1.64	9.83E-06	-3.75E-06	6.09E-06	-0.000101767	-4.31E-05	-0.000144906	1.57E-17	9.25E-18	2.50E-17	-0.000177357	-9.86E-05	-0.000275908	-0.000103714	-6.33E-05	-0.000166966	-5.77E-05	-5.14E-05	-0.000109055	1.77E-06	6.79E-06	8.57E-06	2.23E-05	-2.06E-06	2.03E-05	2.94E-05	8.91E-06	3.83E-05	1.69E-05	-1.91E-06	1.50E-05	6.84E-05	1.25E-05	8.10E-05	-5.82E-05	-3.54E-05	-9.37E-05	-8.09E-05	-3.29E-05	-0.000113828	-1.11E-18	-7.05E-19	-1.82E-18	-6.58E-05	-2.20E-05	-8.78E-05	-8.00E-05	-3.04E-05	-0.000110462	1.53E-05	4.08E-06	1.93E-05	1.15E-06	9.00E-06	1.01E-05	2.95E-06	3.17E-06	6.12E-06	1.97E-06	3.21E-06	5.18E-06	-1.59E-06	4.62E-06	3.03E-06	-1.68E-06	-6.33E-06	-8.01E-06	8.08E-06	-2.29E-06	5.79E-06	-3.99E-05	-1.88E-05	-5.87E-05	1.46E-17	2.66E-18	1.73E-17	-2.88E-05	-1.56E-05	-4.44E-05	-6.14E-05	-2.38E-05	-8.53E-05	-3.19E-05	-1.23E-05	-4.43E-05	1.96E-06	1.39E-06	3.35E-06	7.12E-06	1.31E-06	8.43E-06	6.42E-06	2.58E-06	9.00E-06	-7.67E-06	6.43E-06	-1.24E-06	1.12E-05	1.98E-06	1.32E-05	6.56E-06	1.26E-06	7.81E-06	-1.04E-05	-8.17E-06	-1.86E-05	-2.10E-17	-9.06E-19	-2.19E-17	-7.92E-06	-4.20E-06	-1.21E-05	-7.41E-06	-6.12E-06	-1.35E-05	-5.76E-07	-1.01E-06	-1.59E-06	-4.85E-06	3.82E-06	-1.03E-06	-2.45E-06	1.74E-06	-7.16E-07	-3.85E-06	1.56E-06	-2.29E-06	-3.22E-06	2.37E-06	-8.48E-07	2.64E-06	-1.21E-06	1.43E-06	1
-1.6	9.20E-06	-2.75E-07	8.93E-06	-0.000100867	-4.04E-05	-0.000141285	1.42E-17	8.73E-18	2.29E-17	-0.000174023	-9.38E-05	-0.000267827	-0.000105766	-6.08E-05	-0.000166561	-5.93E-05	-5.01E-05	-0.000109392	-6.68E-07	7.13E-06	6.46E-06	1.94E-05	-2.50E-06	1.69E-05	2.77E-05	8.65E-06	3.64E-05	1.36E-05	-2.48E-06	1.12E-05	6.55E-05	1.21E-05	7.76E-05	-5.87E-05	-3.38E-05	-9.25E-05	-8.00E-05	-3.05E-05	-0.00011041	-1.86E-18	-1.19E-18	-3.06E-18	-6.11E-05	-1.94E-05	-8.05E-05	-7.79E-05	-2.81E-05	-0.000106017	1.65E-05	5.07E-06	2.16E-05	1.27E-06	8.93E-06	1.02E-05	2.85E-06	2.62E-06	5.47E-06	1.05E-06	2.90E-06	3.95E-06	-1.63E-06	4.00E-06	2.37E-06	-2.83E-06	-6.81E-06	-9.64E-06	7.00E-06	-6.80E-07	6.32E-06	-3.67E-05	-1.70E-05	-5.37E-05	1.44E-17	2.40E-18	1.68E-17	-2.34E-05	-1.19E-05	-3.53E-05	-5.57E-05	-2.18E-05	-7.75E-05	-2.96E-05	-1.16E-05	-4.13E-05	1.43E-06	8.90E-07	2.32E-06	6.05E-06	1.39E-06	7.44E-06	4.38E-06	2.05E-06	6.43E-06	-7.86E-06	6.57E-06	-1.28E-06	9.42E-06	1.54E-06	1.10E-05	7.09E-06	3.76E-06	1.08E-05	-9.85E-06	-6.59E-06	-1.64E-05	-2.00E-17	-8.64E-19	-2.09E-17	-7.89E-06	-3.18E-06	-1.11E-05	-7.98E-06	-4.95E-06	-1.29E-05	-1.84E-06	-1.20E-06	-3.04E-06	-5.48E-06	3.56E-06	-1.92E-06	-3.02E-06	1.67E-06	-1.35E-06	-3.93E-06	1.44E-06	-2.49E-06	-3.39E-06	2.19E-06	-1.20E-06	1.90E-06	-1.16E-06	7.44E-07	1
-1.56	8.53E-06	2.97E-06	1.15E-05	-9.95E-05	-3.77E-05	-0.000137111	1.26E-17	8.16E-18	2.08E-17	-0.000169907	-8.88E-05	-0.000258738	-0.000107112	-5.82E-05	-0.000165292	-6.05E-05	-4.86E-05	-0.000109113	-2.97E-06	7.38E-06	4.42E-06	1.65E-05	-2.89E-06	1.36E-05	2.60E-05	8.36E-06	3.44E-05	1.05E-05	-2.99E-06	7.50E-06	6.24E-05	1.15E-05	7.40E-05	-5.87E-05	-3.21E-05	-9.09E-05	-7.86E-05	-2.80E-05	-0.000106535	-2.54E-18	-1.63E-18	-4.17E-18	-5.64E-05	-1.68E-05	-7.32E-05	-7.55E-05	-2.58E-05	-0.000101245	1.75E-05	5.95E-06	2.35E-05	1.38E-06	8.81E-06	1.02E-05	2.74E-06	2.09E-06	4.83E-06	1.74E-07	2.59E-06	2.77E-06	-1.66E-06	3.40E-06	1.73E-06	-3.89E-06	-7.23E-06	-1.11E-05	5.96E-06	8.30E-07	6.79E-06	-3.36E-05	-1.51E-05	-4.87E-05	1.41E-17	2.13E-18	1.62E-17	-1.82E-05	-8.33E-06	-2.65E-05	-5.01E-05	-1.98E-05	-6.98E-05	-2.73E-05	-1.09E-05	-3.82E-05	9.15E-07	4.10E-07	1.32E-06	5.01E-06	1.46E-06	6.47E-06	2.45E-06	1.54E-06	3.98E-06	-7.98E-06	6.66E-06	-1.32E-06	7.70E-06	1.11E-06	8.80E-06	7.56E-06	6.08E-06	1.36E-05	-9.25E-06	-5.08E-06	-1.43E-05	-1.90E-17	-8.30E-19	-1.98E-17	-7.83E-06	-2.20E-06	-1.00E-05	-8.47E-06	-3.84E-06	-1.23E-05	-3.02E-06	-1.37E-06	-4.39E-06	-6.03E-06	3.29E-06	-2.74E-06	-3.53E-06	1.59E-06	-1.94E-06	-3.98E-06	1.33E-06	-2.66E-06	-3.53E-06	2.00E-06	-1.53E-06	1.18E-06	-1.09E-06	8.97E-08	1
-1.52	7.83E-06	5.97E-06	1.38E-05	-9.75E-05	-3.49E-05	-0.000132374	1.10E-17	7.53E-18	1.86E-17	-0.000164993	-8.36E-05	-0.000248628	-0.000107726	-5.54E-05	-0.000163133	-6.13E-05	-4.69E-05	-0.000108198	-5.11E-06	7.55E-06	2.44E-06	1.38E-05	-3.24E-06	1.05E-05	2.42E-05	8.02E-06	3.23E-05	7.46E-06	-3.45E-06	4.01E-06	5.91E-05	1.10E-05	7.01E-05	-5.84E-05	-3.03E-05	-8.87E-05	-7.67E-05	-2.55E-05	-0.000102201	-3.12E-18	-2.02E-18	-5.14E-18	-5.16E-05	-1.43E-05	-6.58E-05	-7.27E-05	-2.34E-05	-9.61E-05	1.83E-05	6.71E-06	2.50E-05	1.46E-06	8.63E-06	1.01E-05	2.63E-06	1.58E-06	4.20E-06	-6.51E-07	2.29E-06	1.64E-06	-1.69E-06	2.80E-06	1.11E-06	-4.86E-06	-7.57E-06	-1.24E-05	4.95E-06	2.24E-06	7.19E-06	-3.04E-05	-1.33E-05	-4.38E-05	1.37E-17	1.84E-18	1.55E-17	-1.32E-05	-4.98E-06	-1.82E-05	-4.45E-05	-1.77E-05	-6.22E-05	-2.50E-05	-1.02E-05	-3.52E-05	4.30E-07	-4.87E-08	3.82E-07	4.01E-06	1.51E-06	5.52E-06	6.16E-07	1.05E-06	1.67E-06	-8.03E-06	6.68E-06	-1.35E-06	6.04E-06	6.90E-07	6.73E-06	7.97E-06	8.22E-06	1.62E-05	-8.63E-06	-3.65E-06	-1.23E-05	-1.78E-17	-8.02E-19	-1.86E-17	-7.71E-06	-1.28E-06	-8.99E-06	-8.89E-06	-2.78E-06	-1.17E-05	-4.12E-06	-1.53E-06	-5.65E-06	-6.52E-06	3.01E-06	-3.51E-06	-3.99E-06	1.51E-06	-2.49E-06	-4.01E-06	1.21E-06	-2.80E-06	-3.66E-06	1.82E-06	-1.84E-06	4.75E-07	-1.01E-06	-5.32E-07	1
-1.48	7.10E-06	8.71E-06	1.58E-05	-9.50E-05	-3.20E-05	-0.000127068	9.41E-18	6.86E-18	1.63E-17	-0.00015927	-7.82E-05	-0.000237491	-0.000107585	-5.25E-05	-0.00016006	-6.16E-05	-4.50E-05	-0.00010663	-7.10E-06	7.63E-06	5.33E-07	1.11E-05	-3.54E-06	7.57E-06	2.24E-05	7.65E-06	3.01E-05	4.57E-06	-3.85E-06	7.27E-07	5.56E-05	1.04E-05	6.60E-05	-5.76E-05	-2.84E-05	-8.60E-05	-7.44E-05	-2.30E-05	-9.74E-05	-3.62E-18	-2.35E-18	-5.98E-18	-4.67E-05	-1.18E-05	-5.85E-05	-6.96E-05	-2.11E-05	-9.07E-05	1.89E-05	7.35E-06	2.63E-05	1.53E-06	8.40E-06	9.92E-06	2.50E-06	1.09E-06	3.59E-06	-1.42E-06	2.00E-06	5.74E-07	-1.72E-06	2.22E-06	5.00E-07	-5.72E-06	-7.84E-06	-1.36E-05	3.98E-06	3.53E-06	7.52E-06	-2.73E-05	-1.16E-05	-3.89E-05	1.32E-17	1.56E-18	1.47E-17	-8.51E-06	-1.82E-06	-1.03E-05	-3.89E-05	-1.57E-05	-5.47E-05	-2.27E-05	-9.42E-06	-3.21E-05	-2.56E-08	-4.84E-07	-5.09E-07	3.05E-06	1.54E-06	4.58E-06	-1.10E-06	5.95E-07	-5.04E-07	-8.02E-06	6.65E-06	-1.38E-06	4.44E-06	2.92E-07	4.74E-06	8.31E-06	1.02E-05	1.85E-05	-8.01E-06	-2.29E-06	-1.03E-05	-1.65E-17	-7.80E-19	-1.73E-17	-7.55E-06	-4.16E-07	-7.96E-06	-9.24E-06	-1.79E-06	-1.10E-05	-5.13E-06	-1.68E-06	-6.80E-06	-6.93E-06	2.73E-06	-4.20E-06	-4.40E-06	1.41E-06	-2.99E-06	-4.01E-06	1.08E-06	-2.92E-06	-3.76E-06	1.63E-06	-2.12E-06	-2.04E-07	-9.15E-07	-1.12E-06	1
-1.44	6.33E-06	1.12E-05	1.75E-05	-9.20E-05	-2.92E-05	-0.000121189	7.79E-18	6.14E-18	1.39E-17	-0.000152731	-7.26E-05	-0.000225324	-0.000106673	-4.94E-05	-0.000156055	-6.14E-05	-4.30E-05	-0.000104396	-8.92E-06	7.63E-06	-1.29E-06	8.55E-06	-3.79E-06	4.76E-06	2.06E-05	7.24E-06	2.78E-05	1.84E-06	-4.19E-06	-2.35E-06	5.19E-05	9.75E-06	6.17E-05	-5.64E-05	-2.63E-05	-8.27E-05	-7.17E-05	-2.05E-05	-9.22E-05	-4.04E-18	-2.63E-18	-6.67E-18	-4.18E-05	-9.41E-06	-5.12E-05	-6.62E-05	-1.88E-05	-8.50E-05	1.93E-05	7.88E-06	2.72E-05	1.57E-06	8.10E-06	9.67E-06	2.38E-06	6.14E-07	2.99E-06	-2.13E-06	1.70E-06	-4.31E-07	-1.74E-06	1.65E-06	-8.42E-08	-6.48E-06	-8.03E-06	-1.45E-05	3.05E-06	4.72E-06	7.77E-06	-2.42E-05	-9.86E-06	-3.41E-05	1.26E-17	1.26E-18	1.39E-17	-4.07E-06	1.13E-06	-2.93E-06	-3.35E-05	-1.38E-05	-4.72E-05	-2.04E-05	-8.66E-06	-2.91E-05	-4.52E-07	-8.93E-07	-1.34E-06	2.13E-06	1.55E-06	3.67E-06	-2.69E-06	1.66E-07	-2.53E-06	-7.94E-06	6.55E-06	-1.39E-06	2.93E-06	-8.74E-08	2.84E-06	8.59E-06	1.19E-05	2.05E-05	-7.37E-06	-1.02E-06	-8.39E-06	-1.51E-17	-7.64E-19	-1.58E-17	-7.33E-06	3.84E-07	-6.95E-06	-9.50E-06	-8.66E-07	-1.04E-05	-6.04E-06	-1.81E-06	-7.85E-06	-7.27E-06	2.45E-06	-4.82E-06	-4.76E-06	1.32E-06	-3.44E-06	-3.98E-06	9.58E-07	-3.02E-06	-3.83E-06	1.45E-06	-2.39E-06	-8.58E-07	-8.12E-07	-1.67E-06	1
-1.4	5.53E-06	1.34E-05	1.89E-05	-8.84E-05	-2.63E-05	-0.000114737	6.16E-18	5.38E-18	1.15E-17	-0.000145376	-6.68E-05	-0.000212135	-0.000104975	-4.61E-05	-0.000151107	-6.08E-05	-4.07E-05	-0.000101487	-1.06E-05	7.54E-06	-3.02E-06	6.11E-06	-4.00E-06	2.11E-06	1.87E-05	6.80E-06	2.55E-05	-7.25E-07	-4.47E-06	-5.20E-06	4.80E-05	9.09E-06	5.71E-05	-5.48E-05	-2.42E-05	-7.89E-05	-6.85E-05	-1.80E-05	-8.64E-05	-4.36E-18	-2.86E-18	-7.22E-18	-3.69E-05	-7.11E-06	-4.40E-05	-6.25E-05	-1.64E-05	-7.89E-05	1.94E-05	8.28E-06	2.77E-05	1.59E-06	7.74E-06	9.33E-06	2.24E-06	1.66E-07	2.41E-06	-2.78E-06	1.41E-06	-1.37E-06	-1.75E-06	1.10E-06	-6.44E-07	-7.13E-06	-8.14E-06	-1.53E-05	2.17E-06	5.78E-06	7.95E-06	-2.11E-05	-8.19E-06	-2.93E-05	1.19E-17	9.64E-19	1.29E-17	1.00E-07	3.87E-06	3.97E-06	-2.81E-05	-1.18E-05	-3.99E-05	-1.81E-05	-7.88E-06	-2.60E-05	-8.47E-07	-1.28E-06	-2.12E-06	1.25E-06	1.54E-06	2.79E-06	-4.16E-06	-2.32E-07	-4.40E-06	-7.79E-06	6.40E-06	-1.40E-06	1.48E-06	-4.46E-07	1.04E-06	8.79E-06	1.34E-05	2.22E-05	-6.72E-06	1.67E-07	-6.55E-06	-1.35E-17	-7.53E-19	-1.43E-17	-7.07E-06	1.12E-06	-5.95E-06	-9.68E-06	-6.23E-09	-9.68E-06	-6.85E-06	-1.92E-06	-8.77E-06	-7.53E-06	2.17E-06	-5.36E-06	-5.05E-06	1.22E-06	-3.84E-06	-3.92E-06	8.30E-07	-3.09E-06	-3.89E-06	1.26E-06	-2.63E-06	-1.48E-06	-6.98E-07	-2.18E-06	1
-1.36	4.71E-06	1.53E-05	2.00E-05	-8.43E-05	-2.34E-05	-0.000107716	4.54E-18	4.58E-18	9.12E-18	-0.000137209	-6.07E-05	-0.000197936	-0.000102484	-4.27E-05	-0.000145208	-5.97E-05	-3.82E-05	-9.79E-05	-1.20E-05	7.36E-06	-4.65E-06	3.78E-06	-4.15E-06	-3.70E-07	1.67E-05	6.31E-06	2.30E-05	-3.13E-06	-4.69E-06	-7.82E-06	4.39E-05	8.39E-06	5.23E-05	-5.27E-05	-2.19E-05	-7.46E-05	-6.49E-05	-1.54E-05	-8.03E-05	-4.60E-18	-3.03E-18	-7.63E-18	-3.19E-05	-4.89E-06	-3.68E-05	-5.84E-05	-1.41E-05	-7.25E-05	1.93E-05	8.55E-06	2.79E-05	1.59E-06	7.32E-06	8.91E-06	2.10E-06	-2.58E-07	1.85E-06	-3.37E-06	1.13E-06	-2.24E-06	-1.75E-06	5.71E-07	-1.18E-06	-7.66E-06	-8.17E-06	-1.58E-05	1.32E-06	6.73E-06	8.05E-06	-1.80E-05	-6.57E-06	-2.46E-05	1.12E-17	6.62E-19	1.18E-17	3.98E-06	6.38E-06	1.04E-05	-2.29E-05	-9.87E-06	-3.28E-05	-1.58E-05	-7.09E-06	-2.29E-05	-1.21E-06	-1.63E-06	-2.84E-06	4.22E-07	1.51E-06	1.93E-06	-5.50E-06	-6.00E-07	-6.10E-06	-7.58E-06	6.18E-06	-1.39E-06	1.25E-07	-7.84E-07	-6.59E-07	8.92E-06	1.47E-05	2.36E-05	-6.06E-06	1.26E-06	-4.80E-06	-1.19E-17	-7.46E-19	-1.27E-17	-6.76E-06	1.79E-06	-4.97E-06	-9.77E-06	7.85E-07	-8.98E-06	-7.57E-06	-2.02E-06	-9.58E-06	-7.71E-06	1.88E-06	-5.83E-06	-5.29E-06	1.11E-06	-4.18E-06	-3.83E-06	7.01E-07	-3.13E-06	-3.91E-06	1.07E-06	-2.84E-06	-2.07E-06	-5.75E-07	-2.65E-06	1
-1.32	3.87E-06	1.70E-05	2.08E-05	-7.96E-05	-2.05E-05	-0.000100133	2.93E-18	3.75E-18	6.68E-18	-0.000128241	-5.45E-05	-0.000182747	-9.92E-05	-3.92E-05	-0.000138358	-5.80E-05	-3.56E-05	-9.36E-05	-1.33E-05	7.10E-06	-6.18E-06	1.58E-06	-4.25E-06	-2.68E-06	1.48E-05	5.79E-06	2.06E-05	-5.35E-06	-4.85E-06	-1.02E-05	3.96E-05	7.66E-06	4.73E-05	-5.03E-05	-1.96E-05	-6.98E-05	-6.08E-05	-1.29E-05	-7.37E-05	-4.75E-18	-3.15E-18	-7.90E-18	-2.69E-05	-2.77E-06	-2.97E-05	-5.40E-05	-1.18E-05	-6.59E-05	1.90E-05	8.70E-06	2.77E-05	1.57E-06	6.84E-06	8.41E-06	1.96E-06	-6.56E-07	1.30E-06	-3.90E-06	8.55E-07	-3.04E-06	-1.74E-06	6.06E-08	-1.68E-06	-8.09E-06	-8.12E-06	-1.62E-05	5.29E-07	7.55E-06	8.08E-06	-1.50E-05	-5.00E-06	-2.00E-05	1.03E-17	3.60E-19	1.07E-17	7.55E-06	8.66E-06	1.62E-05	-1.78E-05	-7.97E-06	-2.57E-05	-1.36E-05	-6.29E-06	-1.98E-05	-1.54E-06	-1.95E-06	-3.49E-06	-3.58E-07	1.47E-06	1.11E-06	-6.71E-06	-9.37E-07	-7.64E-06	-7.29E-06	5.91E-06	-1.38E-06	-1.15E-06	-1.10E-06	-2.25E-06	8.98E-06	1.58E-05	2.48E-05	-5.39E-06	2.27E-06	-3.12E-06	-1.02E-17	-7.42E-19	-1.09E-17	-6.41E-06	2.39E-06	-4.01E-06	-9.77E-06	1.51E-06	-8.27E-06	-8.17E-06	-2.09E-06	-1.03E-05	-7.82E-06	1.60E-06	-6.22E-06	-5.46E-06	9.93E-07	-4.47E-06	-3.72E-06	5.70E-07	-3.15E-06	-3.91E-06	8.84E-07	-3.03E-06	-2.63E-06	-4.44E-07	-3.07E-06	1
-1.28	3.00E-06	1.83E-05	2.13E-05	-7.44E-05	-1.76E-05	-9.20E-05	1.33E-18	2.89E-18	4.23E-18	-0.000118487	-4.81E-05	-0.000166595	-9.51E-05	-3.55E-05	-0.000130564	-5.59E-05	-3.27E-05	-8.87E-05	-1.44E-05	6.76E-06	-7.60E-06	-5.02E-07	-4.31E-06	-4.81E-06	1.28E-05	5.24E-06	1.80E-05	-7.39E-06	-4.94E-06	-1.23E-05	3.51E-05	6.90E-06	4.20E-05	-4.74E-05	-1.71E-05	-6.45E-05	-5.63E-05	-1.04E-05	-6.67E-05	-4.82E-18	-3.21E-18	-8.03E-18	-2.20E-05	-7.50E-07	-2.27E-05	-4.94E-05	-9.54E-06	-5.89E-05	1.85E-05	8.73E-06	2.72E-05	1.53E-06	6.31E-06	7.84E-06	1.80E-06	-1.03E-06	7.78E-07	-4.35E-06	5.85E-07	-3.77E-06	-1.72E-06	-4.27E-07	-2.15E-06	-8.40E-06	-7.99E-06	-1.64E-05	-2.20E-07	8.24E-06	8.02E-06	-1.20E-05	-3.48E-06	-1.54E-05	9.39E-18	5.82E-20	9.45E-18	1.08E-05	1.07E-05	2.15E-05	-1.28E-05	-6.11E-06	-1.89E-05	-1.13E-05	-5.48E-06	-1.68E-05	-1.83E-06	-2.24E-06	-4.08E-06	-1.09E-06	1.40E-06	3.13E-07	-7.77E-06	-1.24E-06	-9.02E-06	-6.94E-06	5.58E-06	-1.36E-06	-2.34E-06	-1.39E-06	-3.73E-06	8.96E-06	1.66E-05	2.56E-05	-4.72E-06	3.18E-06	-1.54E-06	-8.39E-18	-7.41E-19	-9.13E-18	-6.00E-06	2.93E-06	-3.07E-06	-9.69E-06	2.16E-06	-7.53E-06	-8.67E-06	-2.15E-06	-1.08E-05	-7.84E-06	1.31E-06	-6.53E-06	-5.57E-06	8.74E-07	-4.70E-06	-3.57E-06	4.38E-07	-3.14E-06	-3.88E-06	6.99E-07	-3.18E-06	-3.14E-06	-3.07E-07	-3.45E-06	1
-1.24	2.13E-06	1.94E-05	2.15E-05	-6.87E-05	-1.46E-05	-8.33E-05	-2.31E-19	2.01E-18	1.78E-18	-0.000107969	-4.15E-05	-0.000149513	-9.02E-05	-3.16E-05	-0.000121835	-5.34E-05	-2.97E-05	-8.31E-05	-1.52E-05	6.33E-06	-8.89E-06	-2.45E-06	-4.31E-06	-6.76E-06	1.07E-05	4.66E-06	1.54E-05	-9.25E-06	-4.98E-06	-1.42E-05	3.05E-05	6.10E-06	3.66E-05	-4.41E-05	-1.46E-05	-5.87E-05	-5.13E-05	-7.97E-06	-5.93E-05	-4.80E-18	-3.23E-18	-8.03E-18	-1.70E-05	1.17E-06	-1.58E-05	-4.44E-05	-7.29E-06	-5.17E-05	1.77E-05	8.64E-06	2.64E-05	1.46E-06	5.73E-06	7.19E-06	1.65E-06	-1.37E-06	2.76E-07	-4.74E-06	3.23E-07	-4.42E-06	-1.69E-06	-8.90E-07	-2.59E-06	-8.60E-06	-7.78E-06	-1.64E-05	-9.21E-07	8.81E-06	7.89E-06	-9.00E-06	-2.02E-06	-1.10E-05	8.39E-18	-2.41E-19	8.15E-18	1.38E-05	1.25E-05	2.63E-05	-7.90E-06	-4.29E-06	-1.22E-05	-9.07E-06	-4.66E-06	-1.37E-05	-2.09E-06	-2.50E-06	-4.60E-06	-1.77E-06	1.32E-06	-4.46E-07	-8.70E-06	-1.51E-06	-1.02E-05	-6.52E-06	5.19E-06	-1.33E-06	-3.44E-06	-1.65E-06	-5.09E-06	8.86E-06	1.73E-05	2.61E-05	-4.03E-06	4.00E-06	-3.56E-08	-6.51E-18	-7.40E-19	-7.25E-18	-5.55E-06	3.40E-06	-2.16E-06	-9.52E-06	2.74E-06	-6.78E-06	-9.06E-06	-2.19E-06	-1.13E-05	-7.78E-06	1.02E-06	-6.75E-06	-5.63E-06	7.51E-07	-4.87E-06	-3.40E-06	3.07E-07	-3.09E-06	-3.82E-06	5.15E-07	-3.31E-06	-3.62E-06	-1.64E-07	-3.78E-06	1
-1.2	1.24E-06	2.02E-05	2.14E-05	-6.25E-05	-1.17E-05	-7.41E-05	-1.76E-18	1.12E-18	-6.38E-19	-9.67E-05	-3.48E-05	-0.000131545	-8.46E-05	-2.76E-05	-0.000112192	-5.03E-05	-2.65E-05	-7.68E-05	-1.59E-05	5.83E-06	-1.01E-05	-4.26E-06	-4.26E-06	-8.52E-06	8.68E-06	4.04E-06	1.27E-05	-1.09E-05	-4.95E-06	-1.59E-05	2.57E-05	5.28E-06	3.10E-05	-4.05E-05	-1.20E-05	-5.25E-05	-4.60E-05	-5.52E-06	-5.15E-05	-4.71E-18	-3.19E-18	-7.90E-18	-1.21E-05	2.99E-06	-9.10E-06	-3.91E-05	-5.07E-06	-4.42E-05	1.68E-05	8.43E-06	2.52E-05	1.38E-06	5.10E-06	6.48E-06	1.48E-06	-1.68E-06	-2.04E-07	-5.06E-06	6.81E-08	-4.99E-06	-1.66E-06	-1.33E-06	-2.98E-06	-8.68E-06	-7.50E-06	-1.62E-05	-1.57E-06	9.24E-06	7.67E-06	-6.07E-06	-6.21E-07	-6.70E-06	7.32E-18	-5.34E-19	6.79E-18	1.64E-05	1.41E-05	3.05E-05	-3.19E-06	-2.51E-06	-5.69E-06	-6.86E-06	-3.83E-06	-1.07E-05	-2.32E-06	-2.73E-06	-5.05E-06	-2.39E-06	1.22E-06	-1.17E-06	-9.49E-06	-1.75E-06	-1.12E-05	-6.04E-06	4.75E-06	-1.29E-06	-4.44E-06	-1.89E-06	-6.33E-06	8.68E-06	1.77E-05	2.63E-05	-3.35E-06	4.72E-06	1.38E-06	-4.58E-18	-7.39E-19	-5.32E-18	-5.06E-06	3.80E-06	-1.26E-06	-9.25E-06	3.25E-06	-6.01E-06	-9.34E-06	-2.21E-06	-1.16E-05	-7.63E-06	7.36E-07	-6.90E-06	-5.61E-06	6.23E-07	-4.99E-06	-3.20E-06	1.75E-07	-3.02E-06	-3.73E-06	3.34E-07	-3.40E-06	-4.05E-06	-1.78E-08	-4.07E-06	1
-1.16	3.47E-07	2.07E-05	2.10E-05	-5.57E-05	-8.76E-06	-6.45E-05	-3.24E-18	2.18E-19	-3.02E-18	-8.48E-05	-2.80E-05	-0.000112739	-7.82E-05	-2.35E-05	-0.000101658	-4.68E-05	-2.31E-05	-6.99E-05	-1.64E-05	5.26E-06	-1.11E-05	-5.95E-06	-4.16E-06	-1.01E-05	6.60E-06	3.40E-06	1.00E-05	-1.24E-05	-4.86E-06	-1.73E-05	2.08E-05	4.43E-06	2.52E-05	-3.64E-05	-9.36E-06	-4.58E-05	-4.03E-05	-3.10E-06	-4.34E-05	-4.54E-18	-3.10E-18	-7.64E-18	-7.20E-06	4.70E-06	-2.50E-06	-3.36E-05	-2.88E-06	-3.65E-05	1.56E-05	8.11E-06	2.37E-05	1.28E-06	4.42E-06	5.70E-06	1.31E-06	-1.97E-06	-6.61E-07	-5.31E-06	-1.78E-07	-5.49E-06	-1.61E-06	-1.74E-06	-3.34E-06	-8.65E-06	-7.13E-06	-1.58E-05	-2.18E-06	9.55E-06	7.38E-06	-3.20E-06	7.22E-07	-2.48E-06	6.19E-18	-8.20E-19	5.37E-18	1.88E-05	1.54E-05	3.42E-05	1.37E-06	-7.69E-07	6.01E-07	-4.68E-06	-2.99E-06	-7.67E-06	-2.51E-06	-2.92E-06	-5.43E-06	-2.97E-06	1.11E-06	-1.85E-06	-1.01E-05	-1.96E-06	-1.21E-05	-5.49E-06	4.26E-06	-1.23E-06	-5.36E-06	-2.10E-06	-7.46E-06	8.41E-06	1.78E-05	2.62E-05	-2.65E-06	5.35E-06	2.70E-06	-2.61E-18	-7.36E-19	-3.35E-18	-4.52E-06	4.13E-06	-3.96E-07	-8.90E-06	3.69E-06	-5.22E-06	-9.50E-06	-2.21E-06	-1.17E-05	-7.41E-06	4.52E-07	-6.96E-06	-5.54E-06	4.91E-07	-5.05E-06	-2.97E-06	4.46E-08	-2.92E-06	-3.61E-06	1.54E-07	-3.46E-06	-4.43E-06	1.31E-07	-4.30E-06	1
-1.12	-5.46E-07	2.09E-05	2.03E-05	-4.85E-05	-5.82E-06	-5.43E-05	-4.67E-18	-6.85E-19	-5.35E-18	-7.21E-05	-2.10E-05	-9.32E-05	-7.11E-05	-1.92E-05	-9.03E-05	-4.28E-05	-1.96E-05	-6.24E-05	-1.67E-05	4.63E-06	-1.20E-05	-7.49E-06	-4.01E-06	-1.15E-05	4.51E-06	2.73E-06	7.24E-06	-1.37E-05	-4.71E-06	-1.84E-05	1.58E-05	3.56E-06	1.93E-05	-3.20E-05	-6.64E-06	-3.87E-05	-3.42E-05	-7.21E-07	-3.50E-05	-4.30E-18	-2.97E-18	-7.27E-18	-2.36E-06	6.29E-06	3.94E-06	-2.78E-05	-7.32E-07	-2.86E-05	1.43E-05	7.68E-06	2.19E-05	1.16E-06	3.69E-06	4.86E-06	1.13E-06	-2.22E-06	-1.09E-06	-5.49E-06	-4.16E-07	-5.90E-06	-1.54E-06	-2.12E-06	-3.66E-06	-8.52E-06	-6.69E-06	-1.52E-05	-2.73E-06	9.74E-06	7.01E-06	-3.91E-07	2.01E-06	1.62E-06	4.99E-18	-1.10E-18	3.89E-18	2.08E-05	1.65E-05	3.73E-05	5.77E-06	9.19E-07	6.68E-06	-2.53E-06	-2.15E-06	-4.67E-06	-2.67E-06	-3.07E-06	-5.74E-06	-3.49E-06	9.85E-07	-2.50E-06	-1.06E-05	-2.14E-06	-1.28E-05	-4.90E-06	3.72E-06	-1.17E-06	-6.18E-06	-2.28E-06	-8.46E-06	8.07E-06	1.78E-05	2.58E-05	-1.96E-06	5.89E-06	3.94E-06	-6.11E-19	-7.30E-19	-1.34E-18	-3.95E-06	4.39E-06	4.45E-07	-8.46E-06	4.06E-06	-4.41E-06	-9.56E-06	-2.19E-06	-1.18E-05	-7.11E-06	1.69E-07	-6.94E-06	-5.40E-06	3.57E-07	-5.05E-06	-2.71E-06	-8.45E-08	-2.80E-06	-3.46E-06	-2.22E-08	-3.48E-06	-4.77E-06	2.79E-07	-4.49E-06	1
-1.08	-1.43E-06	2.08E-05	1.94E-05	-4.09E-05	-2.89E-06	-4.38E-05	-6.03E-18	-1.58E-18	-7.61E-18	-5.89E-05	-1.39E-05	-7.28E-05	-6.32E-05	-1.48E-05	-7.81E-05	-3.84E-05	-1.59E-05	-5.43E-05	-1.67E-05	3.93E-06	-1.28E-05	-8.91E-06	-3.82E-06	-1.27E-05	2.42E-06	2.04E-06	4.46E-06	-1.48E-05	-4.50E-06	-1.93E-05	1.06E-05	2.66E-06	1.33E-05	-2.73E-05	-3.89E-06	-3.12E-05	-2.79E-05	1.62E-06	-2.62E-05	-4.00E-18	-2.79E-18	-6.79E-18	2.42E-06	7.78E-06	1.02E-05	-2.18E-05	1.38E-06	-2.04E-05	1.27E-05	7.15E-06	1.99E-05	1.03E-06	2.93E-06	3.96E-06	9.42E-07	-2.44E-06	-1.50E-06	-5.60E-06	-6.45E-07	-6.24E-06	-1.47E-06	-2.48E-06	-3.94E-06	-8.27E-06	-6.17E-06	-1.44E-05	-3.24E-06	9.80E-06	6.56E-06	2.36E-06	3.23E-06	5.59E-06	3.75E-18	-1.36E-18	2.38E-18	2.25E-05	1.74E-05	3.99E-05	9.99E-06	2.56E-06	1.25E-05	-4.02E-07	-1.30E-06	-1.70E-06	-2.79E-06	-3.19E-06	-5.97E-06	-3.95E-06	8.45E-07	-3.11E-06	-1.10E-05	-2.28E-06	-1.33E-05	-4.24E-06	3.14E-06	-1.10E-06	-6.90E-06	-2.44E-06	-9.34E-06	7.64E-06	1.75E-05	2.52E-05	-1.25E-06	6.34E-06	5.08E-06	1.40E-18	-7.20E-19	6.76E-19	-3.33E-06	4.59E-06	1.26E-06	-7.94E-06	4.36E-06	-3.57E-06	-9.51E-06	-2.15E-06	-1.17E-05	-6.73E-06	-1.11E-07	-6.84E-06	-5.21E-06	2.19E-07	-4.99E-06	-2.43E-06	-2.12E-07	-2.64E-06	-3.28E-06	-1.95E-07	-3.47E-06	-5.05E-06	4.26E-07	-4.62E-06	1
-1.04	-2.31E-06	2.05E-05	1.82E-05	-3.28E-05	3.19E-08	-3.28E-05	-7.32E-18	-2.46E-18	-9.79E-18	-4.51E-05	-6.79E-06	-5.19E-05	-5.47E-05	-1.03E-05	-6.51E-05	-3.36E-05	-1.21E-05	-4.57E-05	-1.66E-05	3.18E-06	-1.34E-05	-1.02E-05	-3.58E-06	-1.38E-05	3.19E-07	1.32E-06	1.64E-06	-1.57E-05	-4.24E-06	-1.99E-05	5.41E-06	1.74E-06	7.15E-06	-2.23E-05	-1.10E-06	-2.34E-05	-2.12E-05	3.92E-06	-1.73E-05	-3.64E-18	-2.58E-18	-6.22E-18	7.12E-06	9.15E-06	1.63E-05	-1.56E-05	3.45E-06	-1.22E-05	1.10E-05	6.53E-06	1.76E-05	8.88E-07	2.13E-06	3.02E-06	7.50E-07	-2.64E-06	-1.89E-06	-5.64E-06	-8.64E-07	-6.50E-06	-1.37E-06	-2.80E-06	-4.17E-06	-7.93E-06	-5.59E-06	-1.35E-05	-3.70E-06	9.73E-06	6.04E-06	5.05E-06	4.40E-06	9.45E-06	2.46E-18	-1.61E-18	8.46E-19	2.39E-05	1.80E-05	4.19E-05	1.40E-05	4.14E-06	1.82E-05	1.69E-06	-4.52E-07	1.24E-06	-2.87E-06	-3.27E-06	-6.14E-06	-4.36E-06	6.94E-07	-3.67E-06	-1.12E-05	-2.40E-06	-1.36E-05	-3.54E-06	2.53E-06	-1.02E-06	-7.54E-06	-2.56E-06	-1.01E-05	7.14E-06	1.70E-05	2.42E-05	-5.51E-07	6.70E-06	6.15E-06	3.40E-18	-7.04E-19	2.69E-18	-2.68E-06	4.73E-06	2.04E-06	-7.33E-06	4.61E-06	-2.72E-06	-9.34E-06	-2.08E-06	-1.14E-05	-6.27E-06	-3.87E-07	-6.66E-06	-4.95E-06	8.03E-08	-4.87E-06	-2.12E-06	-3.36E-07	-2.46E-06	-3.06E-06	-3.65E-07	-3.42E-06	-5.27E-06	5.70E-07	-4.70E-06	1
-1	-3.17E-06	1.99E-05	1.68E-05	-2.44E-05	2.94E-06	-2.15E-05	-8.53E-18	-3.32E-18	-1.19E-17	-3.08E-05	4.29E-07	-3.04E-05	-4.56E-05	-5.76E-06	-5.13E-05	-2.84E-05	-8.09E-06	-3.65E-05	-1.63E-05	2.39E-06	-1.39E-05	-1.13E-05	-3.30E-06	-1.46E-05	-1.78E-06	5.97E-07	-1.18E-06	-1.64E-05	-3.93E-06	-2.03E-05	1.28E-07	8.08E-07	9.36E-07	-1.70E-05	1.70E-06	-1.53E-05	-1.42E-05	6.17E-06	-8.08E-06	-3.23E-18	-2.33E-18	-5.56E-18	1.17E-05	1.04E-05	2.22E-05	-9.24E-06	5.46E-06	-3.77E-06	9.21E-06	5.82E-06	1.50E-05	7.31E-07	1.31E-06	2.04E-06	5.52E-07	-2.80E-06	-2.25E-06	-5.61E-06	-1.07E-06	-6.69E-06	-1.27E-06	-3.09E-06	-4.36E-06	-7.49E-06	-4.94E-06	-1.24E-05	-4.11E-06	9.55E-06	5.44E-06	7.67E-06	5.50E-06	1.32E-05	1.13E-18	-1.84E-18	-7.11E-19	2.50E-05	1.84E-05	4.34E-05	1.79E-05	5.67E-06	2.36E-05	3.76E-06	3.99E-07	4.16E-06	-2.92E-06	-3.31E-06	-6.24E-06	-4.72E-06	5.34E-07	-4.19E-06	-1.13E-05	-2.48E-06	-1.38E-05	-2.80E-06	1.88E-06	-9.23E-07	-8.09E-06	-2.66E-06	-1.07E-05	6.55E-06	1.63E-05	2.29E-05	1.54E-07	6.97E-06	7.12E-06	5.37E-18	-6.81E-19	4.69E-18	-2.00E-06	4.80E-06	2.80E-06	-6.64E-06	4.79E-06	-1.85E-06	-9.07E-06	-1.99E-06	-1.11E-05	-5.74E-06	-6.59E-07	-6.40E-06	-4.64E-06	-6.00E-08	-4.70E-06	-1.79E-06	-4.57E-07	-2.25E-06	-2.81E-06	-5.30E-07	-3.34E-06	-5.44E-06	7.08E-07	-4.73E-06	1
-0.96	-4.00E-06	1.91E-05	1.51E-05	-1.56E-05	5.82E-06	-9.79E-06	-9.65E-18	-4.15E-18	-1.38E-17	-1.60E-05	7.69E-06	-8.33E-06	-3.59E-05	-1.08E-06	-3.69E-05	-2.28E-05	-4.01E-06	-2.69E-05	-1.58E-05	1.55E-06	-1.43E-05	-1.24E-05	-2.97E-06	-1.53E-05	-3.87E-06	-1.44E-07	-4.01E-06	-1.69E-05	-3.57E-06	-2.05E-05	-5.19E-06	-1.43E-07	-5.34E-06	-1.14E-05	4.51E-06	-6.92E-06	-7.09E-06	8.36E-06	1.27E-06	-2.77E-18	-2.05E-18	-4.83E-18	1.63E-05	1.16E-05	2.78E-05	-2.70E-06	7.43E-06	4.73E-06	7.25E-06	5.04E-06	1.23E-05	5.63E-07	4.58E-07	1.02E-06	3.48E-07	-2.93E-06	-2.58E-06	-5.52E-06	-1.27E-06	-6.79E-06	-1.15E-06	-3.35E-06	-4.50E-06	-6.95E-06	-4.23E-06	-1.12E-05	-4.48E-06	9.26E-06	4.78E-06	1.02E-05	6.55E-06	1.68E-05	-2.19E-19	-2.06E-18	-2.28E-18	2.59E-05	1.86E-05	4.45E-05	2.16E-05	7.15E-06	2.88E-05	5.79E-06	1.25E-06	7.04E-06	-2.94E-06	-3.32E-06	-6.26E-06	-5.03E-06	3.65E-07	-4.66E-06	-1.13E-05	-2.54E-06	-1.38E-05	-2.01E-06	1.19E-06	-8.19E-07	-8.54E-06	-2.72E-06	-1.13E-05	5.89E-06	1.55E-05	2.13E-05	8.59E-07	7.16E-06	8.02E-06	7.30E-18	-6.49E-19	6.65E-18	-1.29E-06	4.82E-06	3.53E-06	-5.86E-06	4.92E-06	-9.47E-07	-8.70E-06	-1.88E-06	-1.06E-05	-5.14E-06	-9.25E-07	-6.07E-06	-4.28E-06	-2.01E-07	-4.48E-06	-1.44E-06	-5.74E-07	-2.01E-06	-2.53E-06	-6.91E-07	-3.22E-06	-5.55E-06	8.39E-07	-4.71E-06	1
-0.92	-4.80E-06	1.81E-05	1.33E-05	-6.55E-06	8.69E-06	2.14E-06	-1.07E-17	-4.93E-18	-1.56E-17	-8.61E-07	1.50E-05	1.41E-05	-2.56E-05	3.67E-06	-2.19E-05	-1.70E-05	1.77E-07	-1.68E-05	-1.51E-05	6.93E-07	-1.44E-05	-1.33E-05	-2.61E-06	-1.59E-05	-5.95E-06	-8.94E-07	-6.84E-06	-1.73E-05	-3.17E-06	-2.04E-05	-1.05E-05	-1.11E-06	-1.16E-05	-5.68E-06	7.31E-06	1.64E-06	2.42E-07	1.05E-05	1.07E-05	-2.29E-18	-1.75E-18	-4.03E-18	2.06E-05	1.26E-05	3.33E-05	3.96E-06	9.35E-06	1.33E-05	5.18E-06	4.19E-06	9.37E-06	3.88E-07	-4.07E-07	-1.88E-08	1.37E-07	-3.03E-06	-2.89E-06	-5.37E-06	-1.46E-06	-6.83E-06	-1.01E-06	-3.57E-06	-4.59E-06	-6.33E-06	-3.46E-06	-9.79E-06	-4.81E-06	8.86E-06	4.06E-06	1.27E-05	7.54E-06	2.02E-05	-1.59E-18	-2.25E-18	-3.83E-18	2.64E-05	1.86E-05	4.50E-05	2.51E-05	8.57E-06	3.37E-05	7.79E-06	2.10E-06	9.89E-06	-2.93E-06	-3.29E-06	-6.22E-06	-5.29E-06	1.90E-07	-5.10E-06	-1.11E-05	-2.57E-06	-1.37E-05	-1.20E-06	4.92E-07	-7.06E-07	-8.91E-06	-2.76E-06	-1.17E-05	5.15E-06	1.44E-05	1.95E-05	1.56E-06	7.28E-06	8.85E-06	9.16E-18	-6.07E-19	8.56E-18	-5.62E-07	4.79E-06	4.23E-06	-5.02E-06	4.99E-06	-2.54E-08	-8.22E-06	-1.74E-06	-9.97E-06	-4.48E-06	-1.19E-06	-5.67E-06	-3.86E-06	-3.41E-07	-4.20E-06	-1.06E-06	-6.86E-07	-1.75E-06	-2.22E-06	-8.46E-07	-3.06E-06	-5.59E-06	9.60E-07	-4.63E-06	1
-0.88	-5.57E-06	1.69E-05	1.13E-05	2.77E-06	1.15E-05	1.43E-05	-1.16E-17	-5.67E-18	-1.73E-17	1.46E-05	2.22E-05	3.68E-05	-1.49E-05	8.50E-06	-6.37E-06	-1.08E-05	4.45E-06	-6.31E-06	-1.43E-05	-1.87E-07	-1.45E-05	-1.41E-05	-2.22E-06	-1.63E-05	-8.01E-06	-1.65E-06	-9.66E-06	-1.74E-05	-2.72E-06	-2.02E-05	-1.59E-05	-2.08E-06	-1.80E-05	2.47E-07	1.01E-05	1.03E-05	7.72E-06	1.26E-05	2.03E-05	-1.77E-18	-1.42E-18	-3.19E-18	2.49E-05	1.35E-05	3.85E-05	1.07E-05	1.12E-05	2.19E-05	3.02E-06	3.28E-06	6.30E-06	2.07E-07	-1.28E-06	-1.08E-06	-7.93E-08	-3.10E-06	-3.18E-06	-5.15E-06	-1.64E-06	-6.79E-06	-8.62E-07	-3.76E-06	-4.62E-06	-5.64E-06	-2.64E-06	-8.28E-06	-5.09E-06	8.37E-06	3.27E-06	1.51E-05	8.48E-06	2.36E-05	-2.96E-18	-2.41E-18	-5.37E-18	2.67E-05	1.84E-05	4.51E-05	2.84E-05	9.93E-06	3.84E-05	9.75E-06	2.95E-06	1.27E-05	-2.89E-06	-3.23E-06	-6.12E-06	-5.50E-06	1.16E-08	-5.48E-06	-1.08E-05	-2.57E-06	-1.34E-05	-3.55E-07	-2.28E-07	-5.82E-07	-9.20E-06	-2.77E-06	-1.20E-05	4.34E-06	1.32E-05	1.75E-05	2.27E-06	7.33E-06	9.60E-06	1.09E-17	-5.53E-19	1.04E-17	1.90E-07	4.71E-06	4.90E-06	-4.10E-06	5.02E-06	9.20E-07	-7.65E-06	-1.59E-06	-9.24E-06	-3.76E-06	-1.44E-06	-5.19E-06	-3.39E-06	-4.81E-07	-3.87E-06	-6.72E-07	-7.93E-07	-1.47E-06	-1.87E-06	-9.96E-07	-2.87E-06	-5.58E-06	1.07E-06	-4.51E-06	1
-0.84	-6.29E-06	1.54E-05	9.15E-06	1.23E-05	1.43E-05	2.66E-05	-1.24E-17	-6.35E-18	-1.87E-17	3.03E-05	2.95E-05	5.98E-05	-3.71E-06	1.34E-05	9.67E-06	-4.31E-06	8.80E-06	4.48E-06	-1.33E-05	-1.08E-06	-1.43E-05	-1.47E-05	-1.80E-06	-1.65E-05	-1.00E-05	-2.40E-06	-1.24E-05	-1.75E-05	-2.24E-06	-1.97E-05	-2.12E-05	-3.06E-06	-2.42E-05	6.30E-06	1.28E-05	1.91E-05	1.53E-05	1.46E-05	2.98E-05	-1.24E-18	-1.08E-18	-2.32E-18	2.91E-05	1.44E-05	4.34E-05	1.75E-05	1.30E-05	3.05E-05	8.00E-07	2.33E-06	3.13E-06	2.25E-08	-2.16E-06	-2.14E-06	-3.02E-07	-3.14E-06	-3.45E-06	-4.88E-06	-1.81E-06	-6.69E-06	-6.94E-07	-3.92E-06	-4.61E-06	-4.87E-06	-1.78E-06	-6.65E-06	-5.34E-06	7.77E-06	2.43E-06	1.74E-05	9.36E-06	2.68E-05	-4.33E-18	-2.56E-18	-6.89E-18	2.68E-05	1.80E-05	4.48E-05	3.16E-05	1.12E-05	4.28E-05	1.17E-05	3.79E-06	1.55E-05	-2.82E-06	-3.12E-06	-5.94E-06	-5.66E-06	-1.69E-07	-5.83E-06	-1.05E-05	-2.55E-06	-1.30E-05	5.09E-07	-9.58E-07	-4.49E-07	-9.41E-06	-2.74E-06	-1.22E-05	3.46E-06	1.18E-05	1.52E-05	2.97E-06	7.31E-06	1.03E-05	1.26E-17	-4.87E-19	1.21E-17	9.58E-07	4.58E-06	5.54E-06	-3.11E-06	5.00E-06	1.89E-06	-6.99E-06	-1.41E-06	-8.40E-06	-2.98E-06	-1.68E-06	-4.66E-06	-2.88E-06	-6.19E-07	-3.49E-06	-2.63E-07	-8.94E-07	-1.16E-06	-1.50E-06	-1.14E-06	-2.64E-06	-5.50E-06	1.17E-06	-4.33E-06	1
-0.8	-6.96E-06	1.39E-05	6.90E-06	2.20E-05	1.71E-05	3.91E-05	-1.31E-17	-6.97E-18	-2.00E-17	4.62E-05	3.67E-05	8.29E-05	7.80E-06	1.83E-05	2.61E-05	2.36E-06	1.32E-05	1.56E-05	-1.21E-05	-1.97E-06	-1.41E-05	-1.53E-05	-1.34E-06	-1.67E-05	-1.20E-05	-3.16E-06	-1.52E-05	-1.73E-05	-1.72E-06	-1.90E-05	-2.64E-05	-4.04E-06	-3.05E-05	1.25E-05	1.55E-05	2.80E-05	2.29E-05	1.65E-05	3.94E-05	-7.02E-19	-7.30E-19	-1.43E-18	3.30E-05	1.51E-05	4.81E-05	2.44E-05	1.47E-05	3.91E-05	-1.47E-06	1.34E-06	-1.23E-07	-1.64E-07	-3.04E-06	-3.20E-06	-5.31E-07	-3.16E-06	-3.69E-06	-4.56E-06	-1.96E-06	-6.52E-06	-5.10E-07	-4.04E-06	-4.55E-06	-4.04E-06	-8.71E-07	-4.91E-06	-5.55E-06	7.10E-06	1.55E-06	1.96E-05	1.02E-05	2.98E-05	-5.68E-18	-2.67E-18	-8.35E-18	2.66E-05	1.75E-05	4.41E-05	3.45E-05	1.25E-05	4.70E-05	1.36E-05	4.63E-06	1.82E-05	-2.72E-06	-2.99E-06	-5.71E-06	-5.77E-06	-3.50E-07	-6.13E-06	-9.95E-06	-2.52E-06	-1.25E-05	1.39E-06	-1.69E-06	-3.06E-07	-9.54E-06	-2.69E-06	-1.22E-05	2.51E-06	1.02E-05	1.27E-05	3.67E-06	7.23E-06	1.09E-05	1.42E-17	-4.07E-19	1.38E-17	1.74E-06	4.41E-06	6.15E-06	-2.07E-06	4.95E-06	2.89E-06	-6.24E-06	-1.20E-06	-7.45E-06	-2.14E-06	-1.92E-06	-4.07E-06	-2.32E-06	-7.54E-07	-3.07E-06	1.61E-07	-9.88E-07	-8.28E-07	-1.09E-06	-1.28E-06	-2.37E-06	-5.36E-06	1.25E-06	-4.11E-06	1
-0.76	-7.57E-06	1.21E-05	4.56E-06	3.18E-05	1.99E-05	5.17E-05	-1.36E-17	-7.52E-18	-2.11E-17	6.22E-05	4.38E-05	0.000106025	1.96E-05	2.33E-05	4.29E-05	9.23E-06	1.76E-05	2.69E-05	-1.08E-05	-2.85E-06	-1.36E-05	-1.58E-05	-8.68E-07	-1.67E-05	-1.40E-05	-3.90E-06	-1.79E-05	-1.70E-05	-1.18E-06	-1.82E-05	-3.16E-05	-5.02E-06	-3.66E-05	1.86E-05	1.82E-05	3.68E-05	3.05E-05	1.83E-05	4.89E-05	-1.64E-19	-3.74E-19	-5.38E-19	3.69E-05	1.57E-05	5.26E-05	3.12E-05	1.64E-05	4.76E-05	-3.75E-06	3.39E-07	-3.41E-06	-3.49E-07	-3.91E-06	-4.26E-06	-7.66E-07	-3.14E-06	-3.91E-06	-4.18E-06	-2.11E-06	-6.29E-06	-3.09E-07	-4.13E-06	-4.44E-06	-3.16E-06	6.73E-08	-3.09E-06	-5.73E-06	6.34E-06	6.15E-07	2.18E-05	1.10E-05	3.28E-05	-7.01E-18	-2.75E-18	-9.77E-18	2.62E-05	1.68E-05	4.31E-05	3.73E-05	1.36E-05	5.09E-05	1.54E-05	5.46E-06	2.09E-05	-2.60E-06	-2.82E-06	-5.41E-06	-5.85E-06	-5.29E-07	-6.38E-06	-9.36E-06	-2.46E-06	-1.18E-05	2.27E-06	-2.42E-06	-1.54E-07	-9.59E-06	-2.61E-06	-1.22E-05	1.49E-06	8.55E-06	1.00E-05	4.37E-06	7.11E-06	1.15E-05	1.56E-17	-3.12E-19	1.53E-17	2.52E-06	4.21E-06	6.73E-06	-9.63E-07	4.87E-06	3.91E-06	-5.41E-06	-9.81E-07	-6.39E-06	-1.27E-06	-2.15E-06	-3.42E-06	-1.72E-06	-8.85E-07	-2.61E-06	5.97E-07	-1.08E-06	-4.78E-07	-6.54E-07	-1.41E-06	-2.06E-06	-5.15E-06	1.31E-06	-3.84E-06	1
-0.72	-8.11E-06	1.03E-05	2.16E-06	4.16E-05	2.26E-05	6.42E-05	-1.40E-17	-7.98E-18	-2.20E-17	7.82E-05	5.08E-05	0.000129062	3.17E-05	2.82E-05	5.99E-05	1.62E-05	2.21E-05	3.83E-05	-9.32E-06	-3.71E-06	-1.30E-05	-1.62E-05	-3.73E-07	-1.66E-05	-1.60E-05	-4.64E-06	-2.06E-05	-1.66E-05	-6.24E-07	-1.72E-05	-3.67E-05	-6.00E-06	-4.27E-05	2.49E-05	2.07E-05	4.56E-05	3.81E-05	2.01E-05	5.82E-05	3.63E-19	-2.00E-20	3.43E-19	4.05E-05	1.62E-05	5.68E-05	3.80E-05	1.80E-05	5.61E-05	-6.03E-06	-6.73E-07	-6.71E-06	-5.31E-07	-4.76E-06	-5.29E-06	-1.01E-06	-3.10E-06	-4.11E-06	-3.76E-06	-2.24E-06	-6.00E-06	-9.23E-08	-4.18E-06	-4.28E-06	-2.23E-06	1.03E-06	-1.20E-06	-5.88E-06	5.52E-06	-3.54E-07	2.38E-05	1.17E-05	3.56E-05	-8.31E-18	-2.80E-18	-1.11E-17	2.57E-05	1.60E-05	4.17E-05	3.99E-05	1.48E-05	5.46E-05	1.73E-05	6.28E-06	2.35E-05	-2.45E-06	-2.61E-06	-5.06E-06	-5.88E-06	-7.03E-07	-6.59E-06	-8.68E-06	-2.38E-06	-1.11E-05	3.16E-06	-3.15E-06	7.70E-09	-9.59E-06	-2.51E-06	-1.21E-05	4.22E-07	6.77E-06	7.19E-06	5.06E-06	6.93E-06	1.20E-05	1.69E-17	-2.02E-19	1.67E-17	3.31E-06	3.98E-06	7.29E-06	1.93E-07	4.76E-06	4.95E-06	-4.50E-06	-7.37E-07	-5.24E-06	-3.52E-07	-2.37E-06	-2.72E-06	-1.09E-06	-1.01E-06	-2.11E-06	1.04E-06	-1.15E-06	-1.11E-07	-1.88E-07	-1.53E-06	-1.72E-06	-4.88E-06	1.36E-06	-3.52E-06	1
-0.68	-8.58E-06	8.33E-06	-2.59E-07	5.15E-05	2.52E-05	7.68E-05	-1.43E-17	-8.36E-18	-2.27E-17	9.42E-05	5.78E-05	0.000151919	4.39E-05	3.32E-05	7.71E-05	2.34E-05	2.66E-05	4.99E-05	-7.75E-06	-4.55E-06	-1.23E-05	-1.65E-05	1.36E-07	-1.64E-05	-1.78E-05	-5.35E-06	-2.32E-05	-1.60E-05	-4.72E-08	-1.61E-05	-4.17E-05	-6.96E-06	-4.86E-05	3.10E-05	2.32E-05	5.42E-05	4.56E-05	2.18E-05	6.74E-05	8.70E-19	3.27E-19	1.20E-18	4.40E-05	1.67E-05	6.07E-05	4.48E-05	1.96E-05	6.44E-05	-8.28E-06	-1.68E-06	-9.96E-06	-7.07E-07	-5.59E-06	-6.30E-06	-1.25E-06	-3.03E-06	-4.29E-06	-3.30E-06	-2.36E-06	-5.66E-06	1.41E-07	-4.20E-06	-4.06E-06	-1.28E-06	2.02E-06	7.43E-07	-6.00E-06	4.64E-06	-1.35E-06	2.58E-05	1.24E-05	3.82E-05	-9.55E-18	-2.82E-18	-1.24E-17	2.50E-05	1.51E-05	4.00E-05	4.23E-05	1.58E-05	5.81E-05	1.91E-05	7.09E-06	2.61E-05	-2.28E-06	-2.38E-06	-4.66E-06	-5.88E-06	-8.72E-07	-6.75E-06	-7.92E-06	-2.29E-06	-1.02E-05	4.03E-06	-3.86E-06	1.78E-07	-9.51E-06	-2.37E-06	-1.19E-05	-7.04E-07	4.90E-06	4.19E-06	5.75E-06	6.72E-06	1.25E-05	1.80E-17	-7.58E-20	1.79E-17	4.10E-06	3.73E-06	7.82E-06	1.39E-06	4.63E-06	6.03E-06	-3.53E-06	-4.72E-07	-4.00E-06	5.99E-07	-2.58E-06	-1.98E-06	-4.33E-07	-1.14E-06	-1.57E-06	1.50E-06	-1.22E-06	2.74E-07	3.06E-07	-1.65E-06	-1.34E-06	-4.54E-06	1.39E-06	-3.16E-06	1
-0.64	-8.98E-06	6.30E-06	-2.68E-06	6.13E-05	2.79E-05	8.92E-05	-1.45E-17	-8.65E-18	-2.31E-17	0.000109958	6.45E-05	0.000174494	5.62E-05	3.82E-05	9.44E-05	3.06E-05	3.10E-05	6.16E-05	-6.07E-06	-5.34E-06	-1.14E-05	-1.67E-05	6.56E-07	-1.61E-05	-1.97E-05	-6.05E-06	-2.57E-05	-1.53E-05	5.40E-07	-1.48E-05	-4.65E-05	-7.92E-06	-5.44E-05	3.71E-05	2.55E-05	6.26E-05	5.29E-05	2.34E-05	7.63E-05	1.35E-18	6.62E-19	2.01E-18	4.73E-05	1.70E-05	6.43E-05	5.14E-05	2.11E-05	7.25E-05	-1.05E-05	-2.67E-06	-1.32E-05	-8.76E-07	-6.39E-06	-7.26E-06	-1.51E-06	-2.94E-06	-4.45E-06	-2.80E-06	-2.47E-06	-5.27E-06	3.89E-07	-4.19E-06	-3.80E-06	-2.91E-07	3.02E-06	2.73E-06	-6.09E-06	3.71E-06	-2.38E-06	2.77E-05	1.31E-05	4.08E-05	-1.07E-17	-2.80E-18	-1.35E-17	2.41E-05	1.41E-05	3.82E-05	4.45E-05	1.68E-05	6.13E-05	2.08E-05	7.89E-06	2.87E-05	-2.10E-06	-2.11E-06	-4.21E-06	-5.85E-06	-1.03E-06	-6.88E-06	-7.09E-06	-2.19E-06	-9.28E-06	4.90E-06	-4.54E-06	3.57E-07	-9.39E-06	-2.22E-06	-1.16E-05	-1.88E-06	2.95E-06	1.07E-06	6.44E-06	6.48E-06	1.29E-05	1.89E-17	6.71E-20	1.89E-17	4.88E-06	3.45E-06	8.33E-06	2.64E-06	4.49E-06	7.13E-06	-2.49E-06	-1.87E-07	-2.68E-06	1.58E-06	-2.77E-06	-1.19E-06	2.53E-07	-1.25E-06	-9.99E-07	1.96E-06	-1.29E-06	6.74E-07	8.27E-07	-1.76E-06	-9.31E-07	-4.14E-06	1.39E-06	-2.75E-06	1
-0.6	-9.29E-06	4.22E-06	-5.06E-06	7.11E-05	3.04E-05	0.000101509	-1.45E-17	-8.84E-18	-2.33E-17	0.00012554	7.11E-05	0.000196685	6.86E-05	4.31E-05	0.000111678	3.78E-05	3.54E-05	7.32E-05	-4.29E-06	-6.08E-06	-1.04E-05	-1.69E-05	1.18E-06	-1.57E-05	-2.14E-05	-6.72E-06	-2.82E-05	-1.46E-05	1.13E-06	-1.34E-05	-5.11E-05	-8.87E-06	-6.00E-05	4.31E-05	2.77E-05	7.08E-05	6.01E-05	2.49E-05	8.49E-05	1.79E-18	9.78E-19	2.76E-18	5.04E-05	1.73E-05	6.76E-05	5.79E-05	2.25E-05	8.04E-05	-1.26E-05	-3.63E-06	-1.62E-05	-1.03E-06	-7.15E-06	-8.18E-06	-1.76E-06	-2.83E-06	-4.59E-06	-2.27E-06	-2.57E-06	-4.83E-06	6.54E-07	-4.14E-06	-3.48E-06	7.07E-07	4.02E-06	4.73E-06	-6.17E-06	2.75E-06	-3.42E-06	2.95E-05	1.37E-05	4.32E-05	-1.19E-17	-2.75E-18	-1.46E-17	2.31E-05	1.30E-05	3.61E-05	4.66E-05	1.78E-05	6.43E-05	2.25E-05	8.67E-06	3.12E-05	-1.89E-06	-1.81E-06	-3.71E-06	-5.78E-06	-1.18E-06	-6.96E-06	-6.20E-06	-2.07E-06	-8.27E-06	5.74E-06	-5.20E-06	5.44E-07	-9.20E-06	-2.03E-06	-1.12E-05	-3.10E-06	9.43E-07	-2.16E-06	7.11E-06	6.21E-06	1.33E-05	1.96E-17	2.27E-19	1.98E-17	5.64E-06	3.17E-06	8.81E-06	3.91E-06	4.34E-06	8.25E-06	-1.40E-06	1.17E-07	-1.28E-06	2.58E-06	-2.96E-06	-3.78E-07	9.62E-07	-1.36E-06	-4.00E-07	2.43E-06	-1.34E-06	1.09E-06	1.37E-06	-1.86E-06	-4.84E-07	-3.67E-06	1.37E-06	-2.30E-06	1
-0.56	-9.51E-06	2.12E-06	-7.39E-06	8.07E-05	3.30E-05	0.000113622	-1.43E-17	-8.94E-18	-2.33E-17	0.000140826	7.76E-05	0.000218396	8.09E-05	4.80E-05	0.000128894	4.50E-05	3.98E-05	8.48E-05	-2.42E-06	-6.76E-06	-9.18E-06	-1.70E-05	1.71E-06	-1.53E-05	-2.32E-05	-7.37E-06	-3.05E-05	-1.37E-05	1.72E-06	-1.20E-05	-5.56E-05	-9.79E-06	-6.53E-05	4.88E-05	2.98E-05	7.86E-05	6.70E-05	2.63E-05	9.33E-05	2.18E-18	1.27E-18	3.45E-18	5.32E-05	1.75E-05	7.07E-05	6.42E-05	2.38E-05	8.81E-05	-1.46E-05	-4.55E-06	-1.92E-05	-1.18E-06	-7.87E-06	-9.05E-06	-2.03E-06	-2.69E-06	-4.72E-06	-1.71E-06	-2.65E-06	-4.36E-06	9.32E-07	-4.05E-06	-3.12E-06	1.71E-06	5.03E-06	6.74E-06	-6.22E-06	1.75E-06	-4.48E-06	3.12E-05	1.43E-05	4.55E-05	-1.29E-17	-2.66E-18	-1.56E-17	2.21E-05	1.18E-05	3.38E-05	4.84E-05	1.87E-05	6.71E-05	2.42E-05	9.45E-06	3.37E-05	-1.67E-06	-1.49E-06	-3.16E-06	-5.68E-06	-1.32E-06	-7.00E-06	-5.26E-06	-1.95E-06	-7.21E-06	6.56E-06	-5.82E-06	7.40E-07	-8.98E-06	-1.83E-06	-1.08E-05	-4.36E-06	-1.10E-06	-5.46E-06	7.79E-06	5.93E-06	1.37E-05	2.01E-17	4.03E-19	2.05E-17	6.39E-06	2.88E-06	9.28E-06	5.21E-06	4.20E-06	9.41E-06	-2.54E-07	4.38E-07	1.85E-07	3.59E-06	-3.13E-06	4.66E-07	1.69E-06	-1.47E-06	2.22E-07	2.89E-06	-1.38E-06	1.51E-06	1.95E-06	-1.95E-06	-4.57E-09	-3.15E-06	1.34E-06	-1.81E-06	1
-0.52	-9.63E-06	8.63E-09	-9.62E-06	9.01E-05	3.54E-05	0.00012549	-1.40E-17	-8.92E-18	-2.30E-17	0.00015574	8.38E-05	0.00023953	9.31E-05	5.29E-05	0.000145953	5.21E-05	4.41E-05	9.62E-05	-4.79E-07	-7.37E-06	-7.85E-06	-1.71E-05	2.24E-06	-1.49E-05	-2.48E-05	-7.98E-06	-3.28E-05	-1.27E-05	2.31E-06	-1.04E-05	-5.98E-05	-1.07E-05	-7.05E-05	5.44E-05	3.17E-05	8.61E-05	7.36E-05	2.76E-05	0.00010122	2.51E-18	1.53E-18	4.05E-18	5.59E-05	1.76E-05	7.35E-05	7.04E-05	2.51E-05	9.55E-05	-1.65E-05	-5.41E-06	-2.19E-05	-1.31E-06	-8.54E-06	-9.85E-06	-2.30E-06	-2.54E-06	-4.84E-06	-1.13E-06	-2.72E-06	-3.85E-06	1.23E-06	-3.94E-06	-2.71E-06	2.70E-06	6.02E-06	8.73E-06	-6.26E-06	7.31E-07	-5.53E-06	3.28E-05	1.49E-05	4.77E-05	-1.39E-17	-2.54E-18	-1.64E-17	2.09E-05	1.06E-05	3.15E-05	5.02E-05	1.95E-05	6.97E-05	2.59E-05	1.02E-05	3.61E-05	-1.44E-06	-1.14E-06	-2.58E-06	-5.56E-06	-1.44E-06	-7.00E-06	-4.28E-06	-1.83E-06	-6.10E-06	7.34E-06	-6.39E-06	9.44E-07	-8.71E-06	-1.61E-06	-1.03E-05	-5.65E-06	-3.17E-06	-8.82E-06	8.46E-06	5.64E-06	1.41E-05	2.04E-17	5.95E-19	2.10E-17	7.12E-06	2.59E-06	9.72E-06	6.54E-06	4.05E-06	1.06E-05	9.32E-07	7.77E-07	1.71E-06	4.62E-06	-3.28E-06	1.33E-06	2.43E-06	-1.56E-06	8.65E-07	3.36E-06	-1.41E-06	1.95E-06	2.54E-06	-2.03E-06	5.07E-07	-2.56E-06	1.27E-06	-1.28E-06	1
-0.48	-9.64E-06	-2.08E-06	-1.17E-05	9.92E-05	3.79E-05	0.00013706	-1.36E-17	-8.80E-18	-2.24E-17	0.000170212	8.98E-05	0.000259997	0.000105076	5.77E-05	0.000162779	5.92E-05	4.83E-05	0.000107466	1.52E-06	-7.91E-06	-6.39E-06	-1.71E-05	2.76E-06	-1.44E-05	-2.64E-05	-8.55E-06	-3.49E-05	-1.17E-05	2.88E-06	-8.85E-06	-6.38E-05	-1.16E-05	-7.54E-05	5.97E-05	3.35E-05	9.32E-05	7.99E-05	2.88E-05	0.00010875	2.79E-18	1.76E-18	4.55E-18	5.83E-05	1.77E-05	7.60E-05	7.63E-05	2.63E-05	0.000102588	-1.83E-05	-6.20E-06	-2.45E-05	-1.43E-06	-9.15E-06	-1.06E-05	-2.58E-06	-2.37E-06	-4.94E-06	-5.34E-07	-2.78E-06	-3.32E-06	1.53E-06	-3.79E-06	-2.26E-06	3.68E-06	7.01E-06	1.07E-05	-6.29E-06	-2.95E-07	-6.59E-06	3.43E-05	1.54E-05	4.98E-05	-1.47E-17	-2.38E-18	-1.71E-17	1.97E-05	9.36E-06	2.91E-05	5.18E-05	2.03E-05	7.20E-05	2.75E-05	1.09E-05	3.85E-05	-1.20E-06	-7.70E-07	-1.97E-06	-5.42E-06	-1.55E-06	-6.97E-06	-3.26E-06	-1.70E-06	-4.96E-06	8.08E-06	-6.92E-06	1.15E-06	-8.40E-06	-1.36E-06	-9.76E-06	-6.97E-06	-5.24E-06	-1.22E-05	9.12E-06	5.35E-06	1.45E-05	2.04E-17	8.03E-19	2.12E-17	7.83E-06	2.31E-06	1.01E-05	7.87E-06	3.92E-06	1.18E-05	2.15E-06	1.13E-06	3.28E-06	5.64E-06	-3.43E-06	2.22E-06	3.17E-06	-1.65E-06	1.53E-06	3.83E-06	-1.43E-06	2.39E-06	3.15E-06	-2.11E-06	1.05E-06	-1.91E-06	1.19E-06	-7.19E-07	1
-0.44	-9.55E-06	-4.13E-06	-1.37E-05	0.00010807	4.02E-05	0.000148286	-1.31E-17	-8.58E-18	-2.16E-17	0.000184172	9.55E-05	0.000279711	0.000116861	6.24E-05	0.000179293	6.61E-05	5.24E-05	0.000118496	3.57E-06	-8.35E-06	-4.79E-06	-1.72E-05	3.26E-06	-1.39E-05	-2.79E-05	-9.09E-06	-3.70E-05	-1.07E-05	3.44E-06	-7.23E-06	-6.75E-05	-1.24E-05	-8.00E-05	6.48E-05	3.50E-05	9.98E-05	8.59E-05	2.99E-05	0.000115817	2.99E-18	1.96E-18	4.95E-18	6.05E-05	1.77E-05	7.82E-05	8.19E-05	2.75E-05	0.00010937	-1.98E-05	-6.92E-06	-2.67E-05	-1.53E-06	-9.70E-06	-1.12E-05	-2.86E-06	-2.18E-06	-5.04E-06	7.19E-08	-2.83E-06	-2.75E-06	1.85E-06	-3.62E-06	-1.77E-06	4.64E-06	7.97E-06	1.26E-05	-6.31E-06	-1.32E-06	-7.63E-06	3.58E-05	1.60E-05	5.18E-05	-1.55E-17	-2.18E-18	-1.77E-17	1.85E-05	8.12E-06	2.66E-05	5.32E-05	2.10E-05	7.42E-05	2.91E-05	1.17E-05	4.08E-05	-9.42E-07	-3.77E-07	-1.32E-06	-5.26E-06	-1.63E-06	-6.89E-06	-2.23E-06	-1.57E-06	-3.80E-06	8.77E-06	-7.40E-06	1.37E-06	-8.07E-06	-1.10E-06	-9.16E-06	-8.31E-06	-7.30E-06	-1.56E-05	9.78E-06	5.07E-06	1.49E-05	2.02E-17	1.03E-18	2.13E-17	8.51E-06	2.04E-06	1.05E-05	9.22E-06	3.81E-06	1.30E-05	3.40E-06	1.50E-06	4.90E-06	6.67E-06	-3.56E-06	3.11E-06	3.92E-06	-1.72E-06	2.20E-06	4.29E-06	-1.44E-06	2.85E-06	3.79E-06	-2.17E-06	1.62E-06	-1.20E-06	1.08E-06	-1.21E-07	1
-0.4	-9.35E-06	-6.12E-06	-1.55E-05	0.000116599	4.25E-05	0.000159122	-1.24E-17	-8.25E-18	-2.06E-17	0.000197557	0.000101033	0.00029859	0.000128347	6.71E-05	0.000195425	7.28E-05	5.64E-05	0.000129242	5.64E-06	-8.70E-06	-3.06E-06	-1.72E-05	3.76E-06	-1.34E-05	-2.93E-05	-9.58E-06	-3.89E-05	-9.55E-06	3.97E-06	-5.58E-06	-7.10E-05	-1.33E-05	-8.43E-05	6.94E-05	3.64E-05	0.000105864	9.14E-05	3.10E-05	0.000122383	3.12E-18	2.11E-18	5.23E-18	6.25E-05	1.76E-05	8.02E-05	8.72E-05	2.86E-05	0.000115798	-2.12E-05	-7.55E-06	-2.88E-05	-1.61E-06	-1.02E-05	-1.18E-05	-3.15E-06	-1.98E-06	-5.13E-06	6.84E-07	-2.86E-06	-2.18E-06	2.18E-06	-3.41E-06	-1.23E-06	5.56E-06	8.91E-06	1.45E-05	-6.32E-06	-2.33E-06	-8.65E-06	3.72E-05	1.65E-05	5.36E-05	-1.61E-17	-1.95E-18	-1.81E-17	1.72E-05	6.90E-06	2.41E-05	5.45E-05	2.17E-05	7.62E-05	3.07E-05	1.24E-05	4.30E-05	-6.81E-07	3.60E-08	-6.45E-07	-5.08E-06	-1.70E-06	-6.78E-06	-1.19E-06	-1.44E-06	-2.63E-06	9.42E-06	-7.82E-06	1.60E-06	-7.70E-06	-8.22E-07	-8.53E-06	-9.67E-06	-9.32E-06	-1.90E-05	1.04E-05	4.81E-06	1.52E-05	1.98E-17	1.26E-18	2.11E-17	9.15E-06	1.79E-06	1.09E-05	1.06E-05	3.72E-06	1.43E-05	4.67E-06	1.88E-06	6.56E-06	7.68E-06	-3.67E-06	4.01E-06	4.67E-06	-1.79E-06	2.88E-06	4.74E-06	-1.44E-06	3.30E-06	4.44E-06	-2.22E-06	2.22E-06	-4.40E-07	9.49E-07	5.09E-07	1
-0.36	-9.03E-06	-8.03E-06	-1.71E-05	0.000124754	4.48E-05	0.000169527	-1.16E-17	-7.81E-18	-1.94E-17	0.000210308	0.000106254	0.000316561	0.000139477	7.16E-05	0.000211104	7.93E-05	6.03E-05	0.000139655	7.74E-06	-8.96E-06	-1.21E-06	-1.72E-05	4.23E-06	-1.29E-05	-3.07E-05	-1.00E-05	-4.07E-05	-8.42E-06	4.48E-06	-3.94E-06	-7.42E-05	-1.40E-05	-8.83E-05	7.38E-05	3.76E-05	0.000111382	9.65E-05	3.19E-05	0.000128412	3.17E-18	2.21E-18	5.38E-18	6.43E-05	1.76E-05	8.18E-05	9.23E-05	2.96E-05	0.000121849	-2.24E-05	-8.08E-06	-3.05E-05	-1.67E-06	-1.06E-05	-1.23E-05	-3.45E-06	-1.76E-06	-5.21E-06	1.30E-06	-2.88E-06	-1.58E-06	2.51E-06	-3.18E-06	-6.62E-07	6.43E-06	9.82E-06	1.63E-05	-6.32E-06	-3.33E-06	-9.65E-06	3.84E-05	1.70E-05	5.54E-05	-1.66E-17	-1.69E-18	-1.83E-17	1.60E-05	5.70E-06	2.17E-05	5.56E-05	2.23E-05	7.80E-05	3.22E-05	1.31E-05	4.53E-05	-4.15E-07	4.66E-07	5.15E-08	-4.89E-06	-1.75E-06	-6.64E-06	-1.44E-07	-1.31E-06	-1.46E-06	1.00E-05	-8.17E-06	1.83E-06	-7.32E-06	-5.31E-07	-7.85E-06	-1.10E-05	-1.13E-05	-2.23E-05	1.11E-05	4.56E-06	1.56E-05	1.92E-17	1.51E-18	2.07E-17	9.76E-06	1.56E-06	1.13E-05	1.19E-05	3.66E-06	1.56E-05	5.96E-06	2.28E-06	8.23E-06	8.68E-06	-3.77E-06	4.91E-06	5.42E-06	-1.85E-06	3.57E-06	5.19E-06	-1.43E-06	3.76E-06	5.11E-06	-2.27E-06	2.84E-06	3.73E-07	7.97E-07	1.17E-06	1
-0.32	-8.60E-06	-9.83E-06	-1.84E-05	0.000132499	4.70E-05	0.00017946	-1.06E-17	-7.27E-18	-1.79E-17	0.00022237	0.000111188	0.000333559	0.000150196	7.61E-05	0.000226267	8.56E-05	6.40E-05	0.00014969	9.85E-06	-9.10E-06	7.55E-07	-1.72E-05	4.68E-06	-1.25E-05	-3.19E-05	-1.04E-05	-4.24E-05	-7.26E-06	4.95E-06	-2.31E-06	-7.71E-05	-1.48E-05	-9.19E-05	7.77E-05	3.86E-05	0.000116296	0.000101133	3.27E-05	0.000133875	3.13E-18	2.26E-18	5.39E-18	6.58E-05	1.74E-05	8.32E-05	9.70E-05	3.05E-05	0.0001275	-2.34E-05	-8.50E-06	-3.19E-05	-1.71E-06	-1.09E-05	-1.27E-05	-3.75E-06	-1.53E-06	-5.28E-06	1.90E-06	-2.88E-06	-9.82E-07	2.86E-06	-2.92E-06	-5.56E-08	7.26E-06	1.07E-05	1.79E-05	-6.32E-06	-4.30E-06	-1.06E-05	3.97E-05	1.75E-05	5.71E-05	-1.70E-17	-1.40E-18	-1.84E-17	1.48E-05	4.55E-06	1.94E-05	5.67E-05	2.29E-05	7.96E-05	3.37E-05	1.37E-05	4.74E-05	-1.44E-07	9.11E-07	7.67E-07	-4.69E-06	-1.78E-06	-6.47E-06	8.93E-07	-1.19E-06	-2.96E-07	1.05E-05	-8.46E-06	2.07E-06	-6.93E-06	-2.29E-07	-7.15E-06	-1.24E-05	-1.32E-05	-2.56E-05	1.17E-05	4.35E-06	1.61E-05	1.83E-17	1.77E-18	2.00E-17	1.03E-05	1.36E-06	1.17E-05	1.33E-05	3.63E-06	1.69E-05	7.25E-06	2.68E-06	9.93E-06	9.66E-06	-3.85E-06	5.81E-06	6.15E-06	-1.90E-06	4.25E-06	5.63E-06	-1.40E-06	4.23E-06	5.80E-06	-2.30E-06	3.49E-06	1.23E-06	6.25E-07	1.86E-06	1
-0.28	-8.04E-06	-1.15E-05	-1.96E-05	0.000139801	4.91E-05	0.000188889	-9.59E-18	-6.63E-18	-1.62E-17	0.000233697	0.000115826	0.000349523	0.000160454	8.04E-05	0.000240855	9.17E-05	6.76E-05	0.000159306	1.20E-05	-9.13E-06	2.83E-06	-1.72E-05	5.11E-06	-1.21E-05	-3.31E-05	-1.08E-05	-4.39E-05	-6.11E-06	5.39E-06	-7.16E-07	-7.97E-05	-1.55E-05	-9.52E-05	8.12E-05	3.94E-05	0.000120568	0.000105262	3.35E-05	0.000138743	3.01E-18	2.26E-18	5.27E-18	6.71E-05	1.73E-05	8.43E-05	0.000101321	3.14E-05	0.000132733	-2.41E-05	-8.81E-06	-3.29E-05	-1.73E-06	-1.12E-05	-1.29E-05	-4.06E-06	-1.30E-06	-5.36E-06	2.50E-06	-2.88E-06	-3.78E-07	3.21E-06	-2.63E-06	5.82E-07	8.02E-06	1.15E-05	1.95E-05	-6.32E-06	-5.22E-06	-1.15E-05	4.08E-05	1.80E-05	5.87E-05	-1.73E-17	-1.08E-18	-1.84E-17	1.37E-05	3.45E-06	1.71E-05	5.76E-05	2.35E-05	8.10E-05	3.52E-05	1.44E-05	4.95E-05	1.29E-07	1.37E-06	1.50E-06	-4.48E-06	-1.79E-06	-6.27E-06	1.92E-06	-1.07E-06	8.42E-07	1.10E-05	-8.68E-06	2.32E-06	-6.52E-06	8.23E-08	-6.44E-06	-1.38E-05	-1.50E-05	-2.88E-05	1.24E-05	4.16E-06	1.65E-05	1.72E-17	2.03E-18	1.92E-17	1.09E-05	1.19E-06	1.21E-05	1.46E-05	3.64E-06	1.82E-05	8.55E-06	3.09E-06	1.16E-05	1.06E-05	-3.92E-06	6.69E-06	6.88E-06	-1.94E-06	4.94E-06	6.06E-06	-1.36E-06	4.69E-06	6.49E-06	-2.33E-06	4.16E-06	2.14E-06	4.34E-07	2.57E-06	1
-0.24	-7.35E-06	-1.31E-05	-2.04E-05	0.000146631	5.12E-05	0.000197782	-8.45E-18	-5.90E-18	-1.44E-17	0.000244248	0.000120158	0.000364406	0.000170208	8.46E-05	0.000254815	9.74E-05	7.11E-05	0.000168469	1.41E-05	-9.04E-06	5.01E-06	-1.73E-05	5.51E-06	-1.17E-05	-3.42E-05	-1.11E-05	-4.53E-05	-4.96E-06	5.79E-06	8.33E-07	-8.20E-05	-1.62E-05	-9.82E-05	8.42E-05	3.99E-05	0.000124167	0.000108869	3.41E-05	0.000142994	2.79E-18	2.21E-18	5.00E-18	6.81E-05	1.71E-05	8.52E-05	0.000105296	3.22E-05	0.000137534	-2.45E-05	-9.00E-06	-3.35E-05	-1.73E-06	-1.14E-05	-1.31E-05	-4.38E-06	-1.06E-06	-5.43E-06	3.08E-06	-2.85E-06	2.26E-07	3.57E-06	-2.32E-06	1.25E-06	8.71E-06	1.23E-05	2.10E-05	-6.31E-06	-6.11E-06	-1.24E-05	4.18E-05	1.84E-05	6.03E-05	-1.74E-17	-7.26E-19	-1.82E-17	1.26E-05	2.43E-06	1.50E-05	5.84E-05	2.40E-05	8.23E-05	3.66E-05	1.50E-05	5.16E-05	4.04E-07	1.84E-06	2.24E-06	-4.27E-06	-1.77E-06	-6.04E-06	2.91E-06	-9.64E-07	1.95E-06	1.14E-05	-8.82E-06	2.58E-06	-6.10E-06	4.01E-07	-5.70E-06	-1.51E-05	-1.68E-05	-3.19E-05	1.30E-05	4.02E-06	1.70E-05	1.58E-17	2.30E-18	1.81E-17	1.13E-05	1.06E-06	1.24E-05	1.59E-05	3.69E-06	1.96E-05	9.85E-06	3.51E-06	1.34E-05	1.15E-05	-3.97E-06	7.57E-06	7.58E-06	-1.96E-06	5.62E-06	6.48E-06	-1.32E-06	5.16E-06	7.20E-06	-2.34E-06	4.86E-06	3.09E-06	2.27E-07	3.31E-06	1
-0.2	-6.54E-06	-1.45E-05	-2.10E-05	0.000152964	5.31E-05	0.000206114	-7.24E-18	-5.09E-18	-1.23E-17	0.00025399	0.000124177	0.000378166	0.000179418	8.87E-05	0.000268101	0.000102816	7.43E-05	0.000177146	1.61E-05	-8.84E-06	7.29E-06	-1.73E-05	5.88E-06	-1.14E-05	-3.53E-05	-1.13E-05	-4.66E-05	-3.83E-06	6.15E-06	2.32E-06	-8.39E-05	-1.68E-05	-0.000100777	8.68E-05	4.03E-05	0.000127068	0.000111936	3.47E-05	0.000146612	2.48E-18	2.10E-18	4.59E-18	6.89E-05	1.69E-05	8.58E-05	0.000108887	3.30E-05	0.000141891	-2.48E-05	-9.07E-06	-3.38E-05	-1.70E-06	-1.15E-05	-1.32E-05	-4.70E-06	-8.06E-07	-5.51E-06	3.64E-06	-2.82E-06	8.24E-07	3.93E-06	-1.99E-06	1.94E-06	9.33E-06	1.30E-05	2.23E-05	-6.31E-06	-6.94E-06	-1.33E-05	4.28E-05	1.89E-05	6.17E-05	-1.75E-17	-3.53E-19	-1.78E-17	1.16E-05	1.49E-06	1.31E-05	5.91E-05	2.44E-05	8.35E-05	3.80E-05	1.56E-05	5.36E-05	6.79E-07	2.31E-06	2.99E-06	-4.05E-06	-1.73E-06	-5.78E-06	3.88E-06	-8.64E-07	3.02E-06	1.17E-05	-8.89E-06	2.84E-06	-5.68E-06	7.24E-07	-4.96E-06	-1.65E-05	-1.84E-05	-3.48E-05	1.36E-05	3.92E-06	1.76E-05	1.43E-17	2.58E-18	1.68E-17	1.18E-05	9.77E-07	1.28E-05	1.72E-05	3.78E-06	2.10E-05	1.11E-05	3.94E-06	1.51E-05	1.24E-05	-4.00E-06	8.42E-06	8.27E-06	-1.98E-06	6.29E-06	6.88E-06	-1.26E-06	5.63E-06	7.92E-06	-2.35E-06	5.57E-06	4.07E-06	5.32E-09	4.07E-06	1
-0.16	-5.60E-06	-1.57E-05	-2.13E-05	0.00015878	5.51E-05	0.000213864	-5.95E-18	-4.19E-18	-1.01E-17	0.000262895	0.000127878	0.000390773	0.000188052	9.26E-05	0.000280673	0.000107895	7.74E-05	0.000185311	1.82E-05	-8.51E-06	9.66E-06	-1.74E-05	6.22E-06	-1.12E-05	-3.62E-05	-1.15E-05	-4.77E-05	-2.73E-06	6.47E-06	3.74E-06	-8.56E-05	-1.74E-05	-0.000103004	8.89E-05	4.04E-05	0.000129249	0.000114448	3.51E-05	0.000149585	2.09E-18	1.94E-18	4.03E-18	6.95E-05	1.67E-05	8.62E-05	0.000112082	3.37E-05	0.000145795	-2.47E-05	-9.00E-06	-3.37E-05	-1.66E-06	-1.15E-05	-1.31E-05	-5.03E-06	-5.52E-07	-5.59E-06	4.18E-06	-2.76E-06	1.41E-06	4.29E-06	-1.64E-06	2.65E-06	9.87E-06	1.37E-05	2.36E-05	-6.31E-06	-7.71E-06	-1.40E-05	4.37E-05	1.94E-05	6.31E-05	-1.73E-17	3.91E-20	-1.73E-17	1.07E-05	6.40E-07	1.14E-05	5.97E-05	2.49E-05	8.45E-05	3.94E-05	1.62E-05	5.56E-05	9.53E-07	2.80E-06	3.75E-06	-3.83E-06	-1.67E-06	-5.50E-06	4.81E-06	-7.74E-07	4.04E-06	1.20E-05	-8.88E-06	3.11E-06	-5.26E-06	1.05E-06	-4.21E-06	-1.78E-05	-1.99E-05	-3.77E-05	1.43E-05	3.87E-06	1.81E-05	1.25E-17	2.85E-18	1.54E-17	1.22E-05	9.35E-07	1.31E-05	1.84E-05	3.92E-06	2.24E-05	1.24E-05	4.37E-06	1.68E-05	1.33E-05	-4.02E-06	9.26E-06	8.94E-06	-1.98E-06	6.95E-06	7.28E-06	-1.19E-06	6.09E-06	8.64E-06	-2.34E-06	6.30E-06	5.08E-06	-2.28E-07	4.86E-06	1
-0.12	-4.54E-06	-1.68E-05	-2.13E-05	0.000164063	5.70E-05	0.000221016	-4.61E-18	-3.23E-18	-7.84E-18	0.000270945	0.00013126	0.000402205	0.000196081	9.64E-05	0.000292499	0.000112622	8.03E-05	0.000192943	2.02E-05	-8.06E-06	1.21E-05	-1.76E-05	6.52E-06	-1.11E-05	-3.70E-05	-1.17E-05	-4.87E-05	-1.67E-06	6.73E-06	5.07E-06	-8.69E-05	-1.80E-05	-0.000104861	9.04E-05	4.03E-05	0.000130696	0.000116395	3.55E-05	0.000151905	1.60E-18	1.72E-18	3.32E-18	6.99E-05	1.65E-05	8.63E-05	0.000114875	3.44E-05	0.000149242	-2.44E-05	-8.81E-06	-3.32E-05	-1.58E-06	-1.14E-05	-1.30E-05	-5.37E-06	-2.96E-07	-5.67E-06	4.68E-06	-2.70E-06	1.99E-06	4.64E-06	-1.27E-06	3.38E-06	1.03E-05	1.43E-05	2.46E-05	-6.31E-06	-8.42E-06	-1.47E-05	4.45E-05	1.99E-05	6.44E-05	-1.71E-17	4.48E-19	-1.66E-17	9.96E-06	-1.01E-07	9.86E-06	6.02E-05	2.52E-05	8.55E-05	4.08E-05	1.67E-05	5.75E-05	1.22E-06	3.28E-06	4.51E-06	-3.62E-06	-1.58E-06	-5.19E-06	5.70E-06	-6.94E-07	5.00E-06	1.22E-05	-8.79E-06	3.38E-06	-4.85E-06	1.38E-06	-3.47E-06	-1.91E-05	-2.13E-05	-4.03E-05	1.49E-05	3.87E-06	1.88E-05	1.06E-17	3.12E-18	1.37E-17	1.25E-05	9.41E-07	1.35E-05	1.97E-05	4.11E-06	2.38E-05	1.37E-05	4.80E-06	1.85E-05	1.41E-05	-4.02E-06	1.01E-05	9.58E-06	-1.98E-06	7.60E-06	7.66E-06	-1.10E-06	6.56E-06	9.36E-06	-2.32E-06	7.04E-06	6.13E-06	-4.69E-07	5.66E-06	1
-0.08	-3.35E-06	-1.77E-05	-2.10E-05	0.000168805	5.88E-05	0.000227561	-3.23E-18	-2.21E-18	-5.44E-18	0.000278129	0.000134323	0.000412453	0.000203486	0.000100067	0.000303553	0.000116986	8.30E-05	0.000200028	2.21E-05	-7.48E-06	1.47E-05	-1.78E-05	6.78E-06	-1.10E-05	-3.78E-05	-1.17E-05	-4.95E-05	-6.51E-07	6.95E-06	6.30E-06	-8.78E-05	-1.85E-05	-0.00010635	9.15E-05	3.99E-05	0.000131398	0.000117774	3.58E-05	0.000153572	1.03E-18	1.45E-18	2.47E-18	7.00E-05	1.62E-05	8.62E-05	0.000117262	3.50E-05	0.000152229	-2.38E-05	-8.47E-06	-3.22E-05	-1.49E-06	-1.13E-05	-1.28E-05	-5.72E-06	-3.91E-08	-5.76E-06	5.16E-06	-2.61E-06	2.55E-06	5.00E-06	-8.81E-07	4.11E-06	1.07E-05	1.49E-05	2.56E-05	-6.31E-06	-9.06E-06	-1.54E-05	4.53E-05	2.04E-05	6.57E-05	-1.67E-17	8.69E-19	-1.58E-17	9.31E-06	-7.30E-07	8.58E-06	6.07E-05	2.56E-05	8.63E-05	4.21E-05	1.73E-05	5.94E-05	1.50E-06	3.77E-06	5.26E-06	-3.40E-06	-1.47E-06	-4.87E-06	6.53E-06	-6.24E-07	5.91E-06	1.23E-05	-8.62E-06	3.67E-06	-4.44E-06	1.70E-06	-2.74E-06	-2.03E-05	-2.25E-05	-4.28E-05	1.55E-05	3.93E-06	1.95E-05	8.52E-18	3.38E-18	1.19E-17	1.28E-05	9.98E-07	1.38E-05	2.09E-05	4.35E-06	2.52E-05	1.49E-05	5.23E-06	2.01E-05	1.49E-05	-4.00E-06	1.09E-05	1.02E-05	-1.96E-06	8.23E-06	8.03E-06	-1.01E-06	7.02E-06	1.01E-05	-2.29E-06	7.80E-06	7.19E-06	-7.15E-07	6.47E-06	1
-0.04	-2.03E-06	-1.84E-05	-2.04E-05	0.000173	6.05E-05	0.000233492	-1.83E-18	-1.14E-18	-2.97E-18	0.000284446	0.000137069	0.000421515	0.000210252	0.000103566	0.000313818	0.000120979	8.56E-05	0.000206555	2.40E-05	-6.79E-06	1.73E-05	-1.80E-05	7.00E-06	-1.10E-05	-3.85E-05	-1.18E-05	-5.02E-05	3.13E-07	7.12E-06	7.43E-06	-8.85E-05	-1.90E-05	-0.000107474	9.20E-05	3.94E-05	0.000131352	0.000118586	3.60E-05	0.00015459	3.69E-19	1.12E-18	1.49E-18	7.00E-05	1.60E-05	8.59E-05	0.000119242	3.55E-05	0.00015476	-2.29E-05	-8.01E-06	-3.09E-05	-1.38E-06	-1.10E-05	-1.24E-05	-6.08E-06	2.18E-07	-5.86E-06	5.60E-06	-2.51E-06	3.09E-06	5.34E-06	-4.80E-07	4.86E-06	1.10E-05	1.54E-05	2.63E-05	-6.31E-06	-9.63E-06	-1.59E-05	4.60E-05	2.09E-05	6.69E-05	-1.61E-17	1.30E-18	-1.48E-17	8.79E-06	-1.24E-06	7.55E-06	6.10E-05	2.59E-05	8.70E-05	4.34E-05	1.78E-05	6.12E-05	1.76E-06	4.26E-06	6.02E-06	-3.19E-06	-1.34E-06	-4.53E-06	7.32E-06	-5.66E-07	6.75E-06	1.23E-05	-8.38E-06	3.96E-06	-4.03E-06	2.02E-06	-2.01E-06	-2.15E-05	-2.36E-05	-4.51E-05	1.62E-05	4.04E-06	2.02E-05	6.30E-18	3.63E-18	9.93E-18	1.31E-05	1.11E-06	1.42E-05	2.20E-05	4.64E-06	2.66E-05	1.61E-05	5.66E-06	2.18E-05	1.56E-05	-3.97E-06	1.16E-05	1.08E-05	-1.94E-06	8.85E-06	8.39E-06	-9.12E-07	7.47E-06	1.08E-05	-2.26E-06	8.57E-06	8.27E-06	-9.63E-07	7.31E-06	1
0	-5.91E-07	-1.89E-05	-1.95E-05	0.000176648	6.22E-05	0.000238811	-4.24E-19	-3.97E-20	-4.64E-19	0.000289898	0.000139503	0.000429401	0.00021637	0.000106914	0.000323285	0.000124596	8.79E-05	0.000212522	2.59E-05	-5.97E-06	1.99E-05	-1.83E-05	7.19E-06	-1.11E-05	-3.91E-05	-1.17E-05	-5.08E-05	1.22E-06	7.24E-06	8.46E-06	-8.88E-05	-1.94E-05	-0.000108238	9.20E-05	3.86E-05	0.000130562	0.000118835	3.61E-05	0.000154968	-3.66E-19	7.42E-19	3.76E-19	6.97E-05	1.58E-05	8.54E-05	0.000120819	3.60E-05	0.000156842	-2.17E-05	-7.41E-06	-2.91E-05	-1.25E-06	-1.07E-05	-1.20E-05	-6.44E-06	4.73E-07	-5.97E-06	6.00E-06	-2.40E-06	3.60E-06	5.68E-06	-6.66E-08	5.61E-06	1.11E-05	1.58E-05	2.69E-05	-6.32E-06	-1.01E-05	-1.64E-05	4.67E-05	2.14E-05	6.81E-05	-1.55E-17	1.73E-18	-1.38E-17	8.40E-06	-1.63E-06	6.77E-06	6.13E-05	2.62E-05	8.76E-05	4.46E-05	1.83E-05	6.29E-05	2.03E-06	4.74E-06	6.77E-06	-2.98E-06	-1.19E-06	-4.16E-06	8.05E-06	-5.19E-07	7.53E-06	1.23E-05	-8.06E-06	4.26E-06	-3.63E-06	2.33E-06	-1.30E-06	-2.27E-05	-2.45E-05	-4.72E-05	1.68E-05	4.21E-06	2.10E-05	3.97E-18	3.86E-18	7.84E-18	1.33E-05	1.27E-06	1.46E-05	2.31E-05	4.98E-06	2.81E-05	1.73E-05	6.09E-06	2.34E-05	1.62E-05	-3.91E-06	1.23E-05	1.13E-05	-1.90E-06	9.44E-06	8.73E-06	-8.01E-07	7.93E-06	1.15E-05	-2.21E-06	9.34E-06	9.36E-06	-1.21E-06	8.15E-06	1
0.04	9.68E-07	-1.93E-05	-1.83E-05	0.000179755	6.38E-05	0.000243522	9.66E-19	1.08E-18	2.05E-18	0.000294501	0.000141631	0.000436132	0.000221841	0.00011011	0.000331951	0.00012784	9.01E-05	0.00021793	2.77E-05	-5.04E-06	2.26E-05	-1.86E-05	7.34E-06	-1.13E-05	-3.96E-05	-1.17E-05	-5.13E-05	2.06E-06	7.30E-06	9.36E-06	-8.89E-05	-1.98E-05	-0.000108653	9.15E-05	3.76E-05	0.000129036	0.000118534	3.62E-05	0.000154722	-1.17E-18	3.14E-19	-8.58E-19	6.92E-05	1.55E-05	8.48E-05	0.000122	3.65E-05	0.000158482	-2.03E-05	-6.69E-06	-2.70E-05	-1.10E-06	-1.03E-05	-1.14E-05	-6.82E-06	7.26E-07	-6.09E-06	6.36E-06	-2.27E-06	4.09E-06	6.01E-06	3.58E-07	6.37E-06	1.12E-05	1.62E-05	2.74E-05	-6.32E-06	-1.05E-05	-1.69E-05	4.73E-05	2.19E-05	6.92E-05	-1.47E-17	2.16E-18	-1.26E-17	8.15E-06	-1.89E-06	6.26E-06	6.16E-05	2.65E-05	8.81E-05	4.59E-05	1.87E-05	6.46E-05	2.29E-06	5.22E-06	7.51E-06	-2.77E-06	-1.01E-06	-3.79E-06	8.72E-06	-4.82E-07	8.23E-06	1.22E-05	-7.67E-06	4.57E-06	-3.25E-06	2.64E-06	-6.09E-07	-2.38E-05	-2.53E-05	-4.91E-05	1.74E-05	4.44E-06	2.19E-05	1.55E-18	4.08E-18	5.63E-18	1.35E-05	1.49E-06	1.50E-05	2.42E-05	5.37E-06	2.96E-05	1.85E-05	6.51E-06	2.50E-05	1.69E-05	-3.85E-06	1.30E-05	1.19E-05	-1.86E-06	1.00E-05	9.06E-06	-6.82E-07	8.38E-06	1.23E-05	-2.15E-06	1.01E-05	1.05E-05	-1.45E-06	9.01E-06	1
0.08	2.64E-06	-1.94E-05	-1.68E-05	0.000182331	6.53E-05	0.000247636	2.32E-18	2.21E-18	4.54E-18	0.000298275	0.000143463	0.000441738	0.000226669	0.000113153	0.000339822	0.000130714	9.21E-05	0.000222786	2.94E-05	-3.99E-06	2.54E-05	-1.91E-05	7.45E-06	-1.16E-05	-4.00E-05	-1.16E-05	-5.16E-05	2.84E-06	7.32E-06	1.02E-05	-8.86E-05	-2.01E-05	-0.000108729	9.04E-05	3.64E-05	0.000126787	0.000117698	3.62E-05	0.000153873	-2.04E-18	-1.59E-19	-2.20E-18	6.86E-05	1.53E-05	8.39E-05	0.000122795	3.69E-05	0.000159696	-1.86E-05	-5.84E-06	-2.44E-05	-9.30E-07	-9.83E-06	-1.08E-05	-7.20E-06	9.75E-07	-6.23E-06	6.67E-06	-2.12E-06	4.56E-06	6.32E-06	7.91E-07	7.11E-06	1.12E-05	1.65E-05	2.77E-05	-6.32E-06	-1.09E-05	-1.72E-05	4.78E-05	2.24E-05	7.02E-05	-1.39E-17	2.59E-18	-1.13E-17	8.04E-06	-2.03E-06	6.01E-06	6.18E-05	2.68E-05	8.86E-05	4.71E-05	1.92E-05	6.62E-05	2.55E-06	5.69E-06	8.24E-06	-2.57E-06	-8.24E-07	-3.39E-06	9.33E-06	-4.56E-07	8.87E-06	1.21E-05	-7.20E-06	4.89E-06	-2.87E-06	2.93E-06	6.49E-08	-2.49E-05	-2.59E-05	-5.08E-05	1.81E-05	4.73E-06	2.28E-05	-9.32E-19	4.27E-18	3.34E-18	1.36E-05	1.76E-06	1.53E-05	2.52E-05	5.81E-06	3.10E-05	1.96E-05	6.93E-06	2.65E-05	1.74E-05	-3.76E-06	1.37E-05	1.24E-05	-1.80E-06	1.06E-05	9.38E-06	-5.55E-07	8.83E-06	1.30E-05	-2.08E-06	1.09E-05	1.16E-05	-1.67E-06	9.89E-06	1
0.12	4.43E-06	-1.94E-05	-1.50E-05	0.000184391	6.68E-05	0.000251169	3.63E-18	3.33E-18	6.96E-18	0.000301247	0.00014501	0.000446258	0.000230867	0.000116045	0.000346912	0.000133227	9.39E-05	0.000227105	3.11E-05	-2.84E-06	2.82E-05	-1.95E-05	7.53E-06	-1.20E-05	-4.04E-05	-1.14E-05	-5.18E-05	3.54E-06	7.28E-06	1.08E-05	-8.81E-05	-2.04E-05	-0.000108481	8.89E-05	3.49E-05	0.000123837	0.000116348	3.61E-05	0.000152445	-2.97E-18	-6.73E-19	-3.65E-18	6.78E-05	1.51E-05	8.29E-05	0.000123218	3.73E-05	0.000160499	-1.67E-05	-4.86E-06	-2.15E-05	-7.48E-07	-9.29E-06	-1.00E-05	-7.59E-06	1.22E-06	-6.37E-06	6.94E-06	-1.95E-06	4.99E-06	6.62E-06	1.23E-06	7.85E-06	1.11E-05	1.68E-05	2.79E-05	-6.32E-06	-1.11E-05	-1.74E-05	4.83E-05	2.30E-05	7.12E-05	-1.29E-17	3.00E-18	-9.87E-18	8.07E-06	-2.03E-06	6.03E-06	6.20E-05	2.70E-05	8.90E-05	4.82E-05	1.96E-05	6.78E-05	2.81E-06	6.15E-06	8.96E-06	-2.37E-06	-6.16E-07	-2.99E-06	9.88E-06	-4.39E-07	9.44E-06	1.19E-05	-6.67E-06	5.22E-06	-2.49E-06	3.21E-06	7.17E-07	-2.59E-05	-2.64E-05	-5.23E-05	1.87E-05	5.07E-06	2.38E-05	-3.45E-18	4.44E-18	9.96E-19	1.37E-05	2.09E-06	1.57E-05	2.62E-05	6.30E-06	3.25E-05	2.07E-05	7.34E-06	2.80E-05	1.80E-05	-3.66E-06	1.43E-05	1.28E-05	-1.74E-06	1.11E-05	9.70E-06	-4.21E-07	9.27E-06	1.37E-05	-2.00E-06	1.17E-05	1.27E-05	-1.88E-06	1.08E-05	1
0.16	6.33E-06	-1.92E-05	-1.29E-05	0.000185957	6.82E-05	0.000254141	4.86E-18	4.43E-18	9.29E-18	0.000303454	0.000146286	0.00044974	0.000234452	0.000118788	0.00035324	0.000135391	9.55E-05	0.000230904	3.27E-05	-1.60E-06	3.11E-05	-2.00E-05	7.56E-06	-1.25E-05	-4.07E-05	-1.12E-05	-5.19E-05	4.17E-06	7.20E-06	1.14E-05	-8.73E-05	-2.06E-05	-0.000107925	8.69E-05	3.33E-05	0.00012021	0.000114508	3.60E-05	0.00015047	-3.95E-18	-1.22E-18	-5.17E-18	6.68E-05	1.50E-05	8.18E-05	0.000123284	3.76E-05	0.000160911	-1.45E-05	-3.78E-06	-1.83E-05	-5.52E-07	-8.68E-06	-9.23E-06	-7.99E-06	1.46E-06	-6.54E-06	7.17E-06	-1.77E-06	5.40E-06	6.90E-06	1.68E-06	8.58E-06	1.09E-05	1.70E-05	2.79E-05	-6.31E-06	-1.13E-05	-1.76E-05	4.87E-05	2.35E-05	7.22E-05	-1.18E-17	3.39E-18	-8.40E-18	8.23E-06	-1.92E-06	6.31E-06	6.21E-05	2.72E-05	8.93E-05	4.93E-05	2.00E-05	6.93E-05	3.07E-06	6.60E-06	9.67E-06	-2.18E-06	-3.94E-07	-2.57E-06	1.04E-05	-4.30E-07	9.94E-06	1.16E-05	-6.08E-06	5.56E-06	-2.13E-06	3.48E-06	1.35E-06	-2.69E-05	-2.67E-05	-5.35E-05	1.94E-05	5.47E-06	2.49E-05	-5.96E-18	4.58E-18	-1.38E-18	1.37E-05	2.47E-06	1.62E-05	2.72E-05	6.83E-06	3.40E-05	2.18E-05	7.74E-06	2.95E-05	1.84E-05	-3.55E-06	1.49E-05	1.33E-05	-1.67E-06	1.16E-05	1.00E-05	-2.81E-07	9.72E-06	1.44E-05	-1.91E-06	1.25E-05	1.37E-05	-2.08E-06	1.17E-05	1
0.2	8.33E-06	-1.88E-05	-1.05E-05	0.000187052	6.95E-05	0.00025658	6.00E-18	5.49E-18	1.15E-17	0.000304937	0.000147304	0.000452242	0.000237448	0.000121387	0.000358835	0.000137221	9.70E-05	0.000234208	3.42E-05	-2.56E-07	3.40E-05	-2.06E-05	7.56E-06	-1.31E-05	-4.09E-05	-1.09E-05	-5.19E-05	4.73E-06	7.07E-06	1.18E-05	-8.62E-05	-2.08E-05	-0.000107081	8.44E-05	3.16E-05	0.000115938	0.000112209	3.58E-05	0.000147982	-4.97E-18	-1.81E-18	-6.77E-18	6.57E-05	1.48E-05	8.05E-05	0.000123014	3.79E-05	0.000160957	-1.21E-05	-2.59E-06	-1.47E-05	-3.46E-07	-8.00E-06	-8.35E-06	-8.40E-06	1.69E-06	-6.71E-06	7.34E-06	-1.57E-06	5.77E-06	7.16E-06	2.12E-06	9.29E-06	1.06E-05	1.71E-05	2.77E-05	-6.29E-06	-1.14E-05	-1.77E-05	4.91E-05	2.41E-05	7.32E-05	-1.06E-17	3.77E-18	-6.87E-18	8.52E-06	-1.69E-06	6.84E-06	6.22E-05	2.74E-05	8.96E-05	5.04E-05	2.03E-05	7.08E-05	3.33E-06	7.04E-06	1.04E-05	-1.99E-06	-1.59E-07	-2.15E-06	1.08E-05	-4.29E-07	1.04E-05	1.13E-05	-5.43E-06	5.92E-06	-1.77E-06	3.72E-06	1.96E-06	-2.78E-05	-2.68E-05	-5.46E-05	2.01E-05	5.92E-06	2.60E-05	-8.45E-18	4.68E-18	-3.76E-18	1.37E-05	2.90E-06	1.66E-05	2.81E-05	7.40E-06	3.55E-05	2.28E-05	8.13E-06	3.09E-05	1.89E-05	-3.42E-06	1.55E-05	1.37E-05	-1.59E-06	1.21E-05	1.03E-05	-1.35E-07	1.02E-05	1.51E-05	-1.81E-06	1.33E-05	1.48E-05	-2.24E-06	1.26E-05	1
0.24	1.04E-05	-1.83E-05	-7.89E-06	0.000187705	7.08E-05	0.000258512	7.03E-18	6.50E-18	1.35E-17	0.000305746	0.000148083	0.000453829	0.000239885	0.000123846	0.000363731	0.000138738	9.83E-05	0.000237045	3.57E-05	1.17E-06	3.69E-05	-2.12E-05	7.53E-06	-1.37E-05	-4.11E-05	-1.06E-05	-5.17E-05	5.23E-06	6.90E-06	1.21E-05	-8.50E-05	-2.10E-05	-0.000105967	8.14E-05	2.96E-05	0.000111057	0.000109484	3.55E-05	0.000145021	-6.01E-18	-2.41E-18	-8.42E-18	6.45E-05	1.47E-05	7.91E-05	0.00012243	3.82E-05	0.000160662	-9.48E-06	-1.31E-06	-1.08E-05	-1.30E-07	-7.27E-06	-7.40E-06	-8.82E-06	1.91E-06	-6.91E-06	7.47E-06	-1.35E-06	6.12E-06	7.40E-06	2.57E-06	9.97E-06	1.03E-05	1.72E-05	2.75E-05	-6.26E-06	-1.14E-05	-1.77E-05	4.94E-05	2.46E-05	7.41E-05	-9.41E-18	4.11E-18	-5.29E-18	8.94E-06	-1.34E-06	7.60E-06	6.22E-05	2.76E-05	8.98E-05	5.15E-05	2.07E-05	7.22E-05	3.59E-06	7.46E-06	1.10E-05	-1.80E-06	8.76E-08	-1.71E-06	1.12E-05	-4.35E-07	1.07E-05	1.10E-05	-4.72E-06	6.28E-06	-1.41E-06	3.95E-06	2.54E-06	-2.86E-05	-2.68E-05	-5.54E-05	2.07E-05	6.42E-06	2.72E-05	-1.09E-17	4.75E-18	-6.12E-18	1.37E-05	3.39E-06	1.71E-05	2.90E-05	8.01E-06	3.70E-05	2.38E-05	8.50E-06	3.23E-05	1.93E-05	-3.28E-06	1.60E-05	1.41E-05	-1.51E-06	1.25E-05	1.06E-05	1.49E-08	1.06E-05	1.58E-05	-1.70E-06	1.41E-05	1.59E-05	-2.38E-06	1.35E-05	1
0.28	1.26E-05	-1.77E-05	-5.05E-06	0.00018795	7.20E-05	0.000259974	7.93E-18	7.44E-18	1.54E-17	0.000305933	0.000148639	0.000454572	0.000241797	0.00012617	0.000367967	0.000139964	9.95E-05	0.000239448	3.71E-05	2.67E-06	3.98E-05	-2.19E-05	7.47E-06	-1.45E-05	-4.12E-05	-1.03E-05	-5.15E-05	5.65E-06	6.69E-06	1.23E-05	-8.35E-05	-2.11E-05	-0.000104608	7.81E-05	2.75E-05	0.000105606	0.000106371	3.53E-05	0.000141631	-7.07E-18	-3.04E-18	-1.01E-17	6.31E-05	1.45E-05	7.76E-05	0.000121558	3.85E-05	0.000160055	-6.68E-06	6.53E-08	-6.61E-06	9.21E-08	-6.49E-06	-6.40E-06	-9.25E-06	2.13E-06	-7.12E-06	7.55E-06	-1.12E-06	6.44E-06	7.62E-06	3.02E-06	1.06E-05	9.82E-06	1.72E-05	2.70E-05	-6.22E-06	-1.13E-05	-1.76E-05	4.97E-05	2.52E-05	7.49E-05	-8.12E-18	4.43E-18	-3.69E-18	9.47E-06	-8.79E-07	8.59E-06	6.23E-05	2.77E-05	9.00E-05	5.25E-05	2.10E-05	7.35E-05	3.85E-06	7.87E-06	1.17E-05	-1.61E-06	3.42E-07	-1.27E-06	1.15E-05	-4.45E-07	1.10E-05	1.06E-05	-3.97E-06	6.66E-06	-1.06E-06	4.16E-06	3.10E-06	-2.93E-05	-2.67E-05	-5.60E-05	2.14E-05	6.97E-06	2.84E-05	-1.32E-17	4.77E-18	-8.43E-18	1.36E-05	3.92E-06	1.75E-05	2.98E-05	8.66E-06	3.84E-05	2.48E-05	8.86E-06	3.37E-05	1.96E-05	-3.12E-06	1.65E-05	1.44E-05	-1.43E-06	1.30E-05	1.09E-05	1.68E-07	1.10E-05	1.65E-05	-1.58E-06	1.49E-05	1.69E-05	-2.48E-06	1.44E-05	1
0.32	1.49E-05	-1.69E-05	-1.99E-06	0.000187821	7.32E-05	0.000261002	8.69E-18	8.29E-18	1.70E-17	0.000305558	0.000148993	0.000454551	0.000243225	0.000128366	0.00037159	0.000140923	0.000100532	0.000241454	3.85E-05	4.23E-06	4.27E-05	-2.27E-05	7.37E-06	-1.53E-05	-4.13E-05	-9.96E-06	-5.12E-05	6.00E-06	6.44E-06	1.24E-05	-8.18E-05	-2.12E-05	-0.000103026	7.44E-05	2.53E-05	9.96E-05	0.00010291	3.49E-05	0.000137857	-8.14E-18	-3.68E-18	-1.18E-17	6.16E-05	1.44E-05	7.61E-05	0.000120425	3.87E-05	0.000159167	-3.71E-06	1.51E-06	-2.19E-06	3.19E-07	-5.67E-06	-5.36E-06	-9.68E-06	2.34E-06	-7.34E-06	7.59E-06	-8.65E-07	6.72E-06	7.80E-06	3.47E-06	1.13E-05	9.30E-06	1.72E-05	2.65E-05	-6.16E-06	-1.12E-05	-1.74E-05	5.00E-05	2.57E-05	7.57E-05	-6.78E-18	4.71E-18	-2.07E-18	1.01E-05	-3.22E-07	9.78E-06	6.23E-05	2.79E-05	9.02E-05	5.34E-05	2.13E-05	7.48E-05	4.12E-06	8.26E-06	1.24E-05	-1.43E-06	6.03E-07	-8.22E-07	1.18E-05	-4.58E-07	1.13E-05	1.02E-05	-3.18E-06	7.06E-06	-7.06E-07	4.35E-06	3.64E-06	-3.00E-05	-2.64E-05	-5.64E-05	2.21E-05	7.56E-06	2.97E-05	-1.54E-17	4.76E-18	-1.07E-17	1.35E-05	4.49E-06	1.80E-05	3.06E-05	9.33E-06	3.99E-05	2.58E-05	9.21E-06	3.50E-05	1.99E-05	-2.95E-06	1.70E-05	1.47E-05	-1.34E-06	1.34E-05	1.12E-05	3.24E-07	1.15E-05	1.71E-05	-1.46E-06	1.57E-05	1.79E-05	-2.55E-06	1.53E-05	1
0.36	1.72E-05	-1.60E-05	1.25E-06	0.000187358	7.43E-05	0.000261637	9.29E-18	9.05E-18	1.83E-17	0.000304684	0.000149165	0.000453849	0.00024421	0.00013044	0.000374651	0.000141643	0.00010146	0.000243103	3.98E-05	5.85E-06	4.57E-05	-2.34E-05	7.26E-06	-1.62E-05	-4.13E-05	-9.58E-06	-5.09E-05	6.29E-06	6.16E-06	1.25E-05	-8.00E-05	-2.13E-05	-0.000101247	7.03E-05	2.29E-05	9.32E-05	9.91E-05	3.46E-05	0.00013375	-9.20E-18	-4.32E-18	-1.35E-17	6.01E-05	1.44E-05	7.45E-05	0.00011906	3.90E-05	0.000158031	-5.86E-07	3.03E-06	2.44E-06	5.48E-07	-4.82E-06	-4.27E-06	-1.01E-05	2.54E-06	-7.59E-06	7.58E-06	-5.95E-07	6.98E-06	7.97E-06	3.91E-06	1.19E-05	8.71E-06	1.72E-05	2.59E-05	-6.08E-06	-1.10E-05	-1.71E-05	5.03E-05	2.63E-05	7.65E-05	-5.41E-18	4.94E-18	-4.69E-19	1.08E-05	3.25E-07	1.12E-05	6.23E-05	2.80E-05	9.03E-05	5.44E-05	2.16E-05	7.60E-05	4.39E-06	8.63E-06	1.30E-05	-1.23E-06	8.68E-07	-3.66E-07	1.20E-05	-4.73E-07	1.15E-05	9.83E-06	-2.36E-06	7.47E-06	-3.48E-07	4.52E-06	4.17E-06	-3.06E-05	-2.60E-05	-5.66E-05	2.29E-05	8.18E-06	3.10E-05	-1.75E-17	4.69E-18	-1.28E-17	1.34E-05	5.11E-06	1.85E-05	3.13E-05	1.00E-05	4.14E-05	2.67E-05	9.54E-06	3.62E-05	2.02E-05	-2.76E-06	1.74E-05	1.50E-05	-1.24E-06	1.38E-05	1.15E-05	4.81E-07	1.19E-05	1.78E-05	-1.32E-06	1.64E-05	1.88E-05	-2.57E-06	1.62E-05	1
0.4	1.96E-05	-1.50E-05	4.66E-06	0.000186603	7.53E-05	0.000261921	9.72E-18	9.70E-18	1.94E-17	0.000303378	0.000149177	0.000452555	0.000244802	0.000132401	0.000377203	0.000142155	0.000102283	0.000244439	4.11E-05	7.51E-06	4.87E-05	-2.42E-05	7.11E-06	-1.71E-05	-4.13E-05	-9.18E-06	-5.04E-05	6.53E-06	5.85E-06	1.24E-05	-7.80E-05	-2.13E-05	-9.93E-05	6.59E-05	2.04E-05	8.63E-05	9.51E-05	3.42E-05	0.000129361	-1.02E-17	-4.97E-18	-1.52E-17	5.85E-05	1.43E-05	7.28E-05	0.000117494	3.92E-05	0.000156682	2.66E-06	4.59E-06	7.25E-06	7.78E-07	-3.94E-06	-3.16E-06	-1.06E-05	2.73E-06	-7.85E-06	7.52E-06	-3.08E-07	7.21E-06	8.10E-06	4.34E-06	1.24E-05	8.07E-06	1.71E-05	2.52E-05	-5.98E-06	-1.08E-05	-1.67E-05	5.05E-05	2.68E-05	7.73E-05	-4.02E-18	5.13E-18	1.11E-18	1.16E-05	1.05E-06	1.27E-05	6.23E-05	2.82E-05	9.04E-05	5.52E-05	2.19E-05	7.71E-05	4.67E-06	8.98E-06	1.37E-05	-1.04E-06	1.13E-06	9.53E-08	1.22E-05	-4.87E-07	1.17E-05	9.42E-06	-1.52E-06	7.90E-06	1.72E-08	4.66E-06	4.67E-06	-3.12E-05	-2.55E-05	-5.67E-05	2.36E-05	8.84E-06	3.24E-05	-1.93E-17	4.58E-18	-1.48E-17	1.33E-05	5.77E-06	1.90E-05	3.21E-05	1.07E-05	4.28E-05	2.76E-05	9.85E-06	3.75E-05	2.04E-05	-2.57E-06	1.78E-05	1.53E-05	-1.15E-06	1.42E-05	1.17E-05	6.38E-07	1.24E-05	1.84E-05	-1.18E-06	1.72E-05	1.97E-05	-2.55E-06	1.72E-05	1
0.44	2.21E-05	-1.39E-05	8.21E-06	0.0001856	7.63E-05	0.000261901	9.95E-18	1.02E-17	2.02E-17	0.000301709	0.00014905	0.000450759	0.000245049	0.000134258	0.000379307	0.000142491	0.000103016	0.000245507	4.24E-05	9.20E-06	5.16E-05	-2.51E-05	6.95E-06	-1.81E-05	-4.12E-05	-8.76E-06	-4.99E-05	6.72E-06	5.52E-06	1.22E-05	-7.59E-05	-2.13E-05	-9.72E-05	6.12E-05	1.78E-05	7.90E-05	9.09E-05	3.39E-05	0.000124744	-1.13E-17	-5.61E-18	-1.69E-17	5.68E-05	1.43E-05	7.11E-05	0.000115761	3.94E-05	0.000155157	6.02E-06	6.20E-06	1.22E-05	1.01E-06	-3.03E-06	-2.03E-06	-1.10E-05	2.92E-06	-8.12E-06	7.43E-06	-3.45E-09	7.42E-06	8.21E-06	4.77E-06	1.30E-05	7.37E-06	1.70E-05	2.44E-05	-5.85E-06	-1.05E-05	-1.63E-05	5.06E-05	2.73E-05	7.80E-05	-2.63E-18	5.27E-18	2.64E-18	1.25E-05	1.85E-06	1.44E-05	6.22E-05	2.83E-05	9.05E-05	5.60E-05	2.21E-05	7.82E-05	4.95E-06	9.32E-06	1.43E-05	-8.37E-07	1.40E-06	5.61E-07	1.23E-05	-5.00E-07	1.18E-05	9.01E-06	-6.54E-07	8.35E-06	3.93E-07	4.77E-06	5.16E-06	-3.17E-05	-2.48E-05	-5.65E-05	2.44E-05	9.52E-06	3.39E-05	-2.10E-17	4.42E-18	-1.66E-17	1.31E-05	6.45E-06	1.96E-05	3.27E-05	1.15E-05	4.42E-05	2.85E-05	1.01E-05	3.87E-05	2.06E-05	-2.37E-06	1.83E-05	1.56E-05	-1.05E-06	1.45E-05	1.20E-05	7.95E-07	1.28E-05	1.90E-05	-1.03E-06	1.80E-05	2.06E-05	-2.47E-06	1.81E-05	1
0.48	2.47E-05	-1.28E-05	1.19E-05	0.000184393	7.72E-05	0.000261623	9.99E-18	1.06E-17	2.06E-17	0.000299748	0.000148808	0.000448555	0.000245005	0.000136018	0.000381023	0.000142682	0.000103672	0.000246354	4.36E-05	1.09E-05	5.46E-05	-2.59E-05	6.77E-06	-1.91E-05	-4.11E-05	-8.34E-06	-4.94E-05	6.86E-06	5.16E-06	1.20E-05	-7.37E-05	-2.13E-05	-9.50E-05	5.63E-05	1.52E-05	7.15E-05	8.65E-05	3.35E-05	0.000119955	-1.22E-17	-6.23E-18	-1.85E-17	5.51E-05	1.43E-05	6.94E-05	0.000113893	3.96E-05	0.000153493	9.45E-06	7.83E-06	1.73E-05	1.23E-06	-2.12E-06	-8.90E-07	-1.15E-05	3.09E-06	-8.41E-06	7.29E-06	3.17E-07	7.61E-06	8.28E-06	5.19E-06	1.35E-05	6.64E-06	1.68E-05	2.35E-05	-5.70E-06	-1.01E-05	-1.58E-05	5.08E-05	2.79E-05	7.86E-05	-1.25E-18	5.36E-18	4.11E-18	1.35E-05	2.71E-06	1.62E-05	6.22E-05	2.84E-05	9.06E-05	5.68E-05	2.24E-05	7.92E-05	5.25E-06	9.63E-06	1.49E-05	-6.27E-07	1.66E-06	1.03E-06	1.24E-05	-5.09E-07	1.19E-05	8.60E-06	2.18E-07	8.82E-06	7.83E-07	4.86E-06	5.64E-06	-3.21E-05	-2.41E-05	-5.62E-05	2.51E-05	1.02E-05	3.54E-05	-2.24E-17	4.20E-18	-1.82E-17	1.30E-05	7.17E-06	2.02E-05	3.34E-05	1.22E-05	4.56E-05	2.94E-05	1.04E-05	3.98E-05	2.08E-05	-2.15E-06	1.86E-05	1.58E-05	-9.53E-07	1.49E-05	1.23E-05	9.49E-07	1.33E-05	1.96E-05	-8.74E-07	1.87E-05	2.14E-05	-2.35E-06	1.91E-05	1
0.52	2.73E-05	-1.16E-05	1.56E-05	0.000183028	7.81E-05	0.000261137	9.83E-18	1.09E-17	2.07E-17	0.000297567	0.000148472	0.000446039	0.000244724	0.000137691	0.000382415	0.000142764	0.000104267	0.000247031	4.49E-05	1.27E-05	5.75E-05	-2.68E-05	6.58E-06	-2.02E-05	-4.09E-05	-7.90E-06	-4.88E-05	6.97E-06	4.80E-06	1.18E-05	-7.15E-05	-2.12E-05	-9.27E-05	5.12E-05	1.25E-05	6.36E-05	8.20E-05	3.31E-05	0.00011505	-1.32E-17	-6.83E-18	-2.00E-17	5.34E-05	1.44E-05	6.77E-05	0.000111925	3.98E-05	0.000151729	1.29E-05	9.48E-06	2.24E-05	1.45E-06	-1.20E-06	2.48E-07	-1.20E-05	3.26E-06	-8.72E-06	7.12E-06	6.54E-07	7.78E-06	8.33E-06	5.60E-06	1.39E-05	5.87E-06	1.67E-05	2.25E-05	-5.52E-06	-9.70E-06	-1.52E-05	5.09E-05	2.84E-05	7.93E-05	1.03E-19	5.39E-18	5.49E-18	1.44E-05	3.61E-06	1.80E-05	6.21E-05	2.85E-05	9.06E-05	5.75E-05	2.26E-05	8.01E-05	5.55E-06	9.92E-06	1.55E-05	-4.07E-07	1.91E-06	1.51E-06	1.25E-05	-5.12E-07	1.20E-05	8.22E-06	1.09E-06	9.31E-06	1.19E-06	4.92E-06	6.11E-06	-3.24E-05	-2.33E-05	-5.57E-05	2.59E-05	1.09E-05	3.69E-05	-2.36E-17	3.94E-18	-1.96E-17	1.28E-05	7.92E-06	2.07E-05	3.41E-05	1.30E-05	4.70E-05	3.03E-05	1.07E-05	4.10E-05	2.10E-05	-1.93E-06	1.90E-05	1.61E-05	-8.57E-07	1.52E-05	1.27E-05	1.10E-06	1.38E-05	2.02E-05	-7.11E-07	1.95E-05	2.22E-05	-2.16E-06	2.00E-05	1
0.56	2.99E-05	-1.04E-05	1.95E-05	0.000181553	7.89E-05	0.00026049	9.45E-18	1.10E-17	2.04E-17	0.00029524	0.000148066	0.000443306	0.00024426	0.000139287	0.000383547	0.000142771	0.000104815	0.000247586	4.61E-05	1.44E-05	6.05E-05	-2.77E-05	6.38E-06	-2.13E-05	-4.08E-05	-7.46E-06	-4.82E-05	7.04E-06	4.42E-06	1.15E-05	-6.92E-05	-2.11E-05	-9.03E-05	4.59E-05	9.74E-06	5.56E-05	7.74E-05	3.27E-05	0.000110085	-1.40E-17	-7.40E-18	-2.14E-17	5.16E-05	1.44E-05	6.61E-05	0.000109891	4.00E-05	0.000149902	1.65E-05	1.11E-05	2.76E-05	1.66E-06	-2.82E-07	1.37E-06	-1.25E-05	3.42E-06	-9.03E-06	6.92E-06	1.01E-06	7.93E-06	8.34E-06	6.00E-06	1.43E-05	5.08E-06	1.65E-05	2.16E-05	-5.30E-06	-9.26E-06	-1.46E-05	5.10E-05	2.89E-05	7.99E-05	1.41E-18	5.37E-18	6.78E-18	1.54E-05	4.54E-06	2.00E-05	6.21E-05	2.86E-05	9.07E-05	5.82E-05	2.28E-05	8.10E-05	5.87E-06	1.02E-05	1.61E-05	-1.75E-07	2.16E-06	1.98E-06	1.26E-05	-5.09E-07	1.21E-05	7.87E-06	1.96E-06	9.83E-06	1.62E-06	4.96E-06	6.58E-06	-3.26E-05	-2.24E-05	-5.50E-05	2.67E-05	1.17E-05	3.84E-05	-2.45E-17	3.62E-18	-2.08E-17	1.27E-05	8.68E-06	2.13E-05	3.47E-05	1.37E-05	4.84E-05	3.12E-05	1.09E-05	4.21E-05	2.11E-05	-1.70E-06	1.94E-05	1.63E-05	-7.63E-07	1.55E-05	1.30E-05	1.25E-06	1.42E-05	2.07E-05	-5.42E-07	2.02E-05	2.29E-05	-1.92E-06	2.10E-05	1
0.6	3.26E-05	-9.24E-06	2.33E-05	0.000180015	7.97E-05	0.000259732	8.86E-18	1.09E-17	1.98E-17	0.000292838	0.000147611	0.000440449	0.00024367	0.000140815	0.000384485	0.000142737	0.000105331	0.000248068	4.73E-05	1.61E-05	6.34E-05	-2.85E-05	6.17E-06	-2.24E-05	-4.06E-05	-7.02E-06	-4.76E-05	7.10E-06	4.04E-06	1.11E-05	-6.69E-05	-2.10E-05	-8.79E-05	4.05E-05	6.97E-06	4.74E-05	7.28E-05	3.23E-05	0.000105116	-1.48E-17	-7.93E-18	-2.27E-17	4.99E-05	1.45E-05	6.45E-05	0.000107827	4.02E-05	0.000148052	2.00E-05	1.28E-05	3.28E-05	1.86E-06	6.24E-07	2.48E-06	-1.29E-05	3.57E-06	-9.36E-06	6.69E-06	1.37E-06	8.06E-06	8.32E-06	6.39E-06	1.47E-05	4.28E-06	1.63E-05	2.06E-05	-5.05E-06	-8.79E-06	-1.38E-05	5.10E-05	2.94E-05	8.04E-05	2.67E-18	5.28E-18	7.95E-18	1.64E-05	5.49E-06	2.19E-05	6.20E-05	2.87E-05	9.07E-05	5.88E-05	2.30E-05	8.18E-05	6.20E-06	1.04E-05	1.66E-05	7.22E-08	2.39E-06	2.47E-06	1.26E-05	-4.96E-07	1.21E-05	7.56E-06	2.81E-06	1.04E-05	2.07E-06	4.96E-06	7.04E-06	-3.28E-05	-2.14E-05	-5.43E-05	2.76E-05	1.24E-05	4.00E-05	-2.50E-17	3.26E-18	-2.18E-17	1.25E-05	9.46E-06	2.20E-05	3.53E-05	1.44E-05	4.97E-05	3.20E-05	1.11E-05	4.31E-05	2.13E-05	-1.47E-06	1.98E-05	1.65E-05	-6.72E-07	1.58E-05	1.33E-05	1.39E-06	1.47E-05	2.13E-05	-3.67E-07	2.09E-05	2.35E-05	-1.62E-06	2.19E-05	1
0.64	3.52E-05	-8.07E-06	2.72E-05	0.000178458	8.05E-05	0.000258911	8.04E-18	1.07E-17	1.87E-17	0.000290431	0.00014713	0.000437561	0.000243009	0.000142286	0.000385295	0.000142697	0.000105831	0.000248529	4.86E-05	1.78E-05	6.64E-05	-2.94E-05	5.95E-06	-2.34E-05	-4.04E-05	-6.59E-06	-4.70E-05	7.15E-06	3.67E-06	1.08E-05	-6.46E-05	-2.09E-05	-8.55E-05	3.50E-05	4.20E-06	3.92E-05	6.83E-05	3.19E-05	0.000100198	-1.55E-17	-8.42E-18	-2.39E-17	4.82E-05	1.46E-05	6.29E-05	0.000105767	4.04E-05	0.000146216	2.35E-05	1.44E-05	3.79E-05	2.05E-06	1.51E-06	3.56E-06	-1.34E-05	3.72E-06	-9.70E-06	6.43E-06	1.75E-06	8.18E-06	8.28E-06	6.76E-06	1.50E-05	3.48E-06	1.61E-05	1.96E-05	-4.76E-06	-8.31E-06	-1.31E-05	5.11E-05	2.98E-05	8.09E-05	3.86E-18	5.14E-18	9.00E-18	1.74E-05	6.45E-06	2.38E-05	6.19E-05	2.88E-05	9.07E-05	5.94E-05	2.31E-05	8.25E-05	6.55E-06	1.07E-05	1.72E-05	3.36E-07	2.62E-06	2.95E-06	1.27E-05	-4.73E-07	1.22E-05	7.29E-06	3.65E-06	1.09E-05	2.56E-06	4.94E-06	7.50E-06	-3.30E-05	-2.04E-05	-5.34E-05	2.84E-05	1.31E-05	4.15E-05	-2.53E-17	2.84E-18	-2.25E-17	1.24E-05	1.02E-05	2.26E-05	3.59E-05	1.51E-05	5.10E-05	3.29E-05	1.13E-05	4.42E-05	2.14E-05	-1.23E-06	2.02E-05	1.67E-05	-5.85E-07	1.61E-05	1.37E-05	1.53E-06	1.52E-05	2.18E-05	-1.88E-07	2.16E-05	2.41E-05	-1.26E-06	2.29E-05	1
0.68	3.80E-05	-6.93E-06	3.10E-05	0.000176928	8.11E-05	0.000258075	7.02E-18	1.03E-17	1.73E-17	0.000288087	0.000146643	0.00043473	0.000242332	0.000143708	0.00038604	0.000142685	0.000106328	0.000249014	4.98E-05	1.95E-05	6.93E-05	-3.02E-05	5.74E-06	-2.45E-05	-4.01E-05	-6.17E-06	-4.63E-05	7.21E-06	3.30E-06	1.05E-05	-6.23E-05	-2.08E-05	-8.31E-05	2.94E-05	1.44E-06	3.09E-05	6.38E-05	3.16E-05	9.54E-05	-1.61E-17	-8.86E-18	-2.50E-17	4.66E-05	1.48E-05	6.14E-05	0.000103743	4.07E-05	0.000144431	2.70E-05	1.60E-05	4.30E-05	2.23E-06	2.37E-06	4.60E-06	-1.39E-05	3.85E-06	-1.00E-05	6.16E-06	2.14E-06	8.30E-06	8.21E-06	7.13E-06	1.53E-05	2.69E-06	1.59E-05	1.86E-05	-4.43E-06	-7.80E-06	-1.22E-05	5.11E-05	3.03E-05	8.14E-05	4.96E-18	4.93E-18	9.89E-18	1.84E-05	7.41E-06	2.58E-05	6.18E-05	2.88E-05	9.07E-05	5.99E-05	2.33E-05	8.32E-05	6.91E-06	1.09E-05	1.78E-05	6.19E-07	2.82E-06	3.44E-06	1.27E-05	-4.39E-07	1.23E-05	7.09E-06	4.45E-06	1.15E-05	3.07E-06	4.89E-06	7.97E-06	-3.30E-05	-1.94E-05	-5.24E-05	2.93E-05	1.38E-05	4.31E-05	-2.53E-17	2.38E-18	-2.29E-17	1.22E-05	1.10E-05	2.33E-05	3.64E-05	1.58E-05	5.23E-05	3.38E-05	1.15E-05	4.52E-05	2.15E-05	-9.85E-07	2.06E-05	1.69E-05	-5.02E-07	1.64E-05	1.41E-05	1.66E-06	1.57E-05	2.23E-05	-4.35E-09	2.23E-05	2.47E-05	-8.36E-07	2.38E-05	1
0.72	4.07E-05	-5.84E-06	3.48E-05	0.000175468	8.18E-05	0.00025727	5.78E-18	9.75E-18	1.55E-17	0.000285871	0.000146171	0.000432043	0.00024169	0.000145092	0.000386782	0.000142734	0.000106837	0.000249571	5.11E-05	2.11E-05	7.22E-05	-3.11E-05	5.54E-06	-2.55E-05	-3.99E-05	-5.76E-06	-4.57E-05	7.27E-06	2.94E-06	1.02E-05	-6.00E-05	-2.07E-05	-8.07E-05	2.39E-05	-1.29E-06	2.26E-05	5.94E-05	3.13E-05	9.07E-05	-1.67E-17	-9.25E-18	-2.59E-17	4.50E-05	1.50E-05	5.99E-05	0.000101789	4.09E-05	0.000142733	3.05E-05	1.75E-05	4.80E-05	2.40E-06	3.20E-06	5.60E-06	-1.44E-05	3.98E-06	-1.04E-05	5.87E-06	2.55E-06	8.41E-06	8.11E-06	7.47E-06	1.56E-05	1.92E-06	1.57E-05	1.76E-05	-4.06E-06	-7.29E-06	-1.14E-05	5.11E-05	3.07E-05	8.18E-05	5.97E-18	4.67E-18	1.06E-17	1.93E-05	8.35E-06	2.76E-05	6.17E-05	2.89E-05	9.06E-05	6.04E-05	2.35E-05	8.38E-05	7.29E-06	1.10E-05	1.83E-05	9.23E-07	3.01E-06	3.93E-06	1.28E-05	-3.92E-07	1.24E-05	6.95E-06	5.22E-06	1.22E-05	3.62E-06	4.82E-06	8.44E-06	-3.30E-05	-1.84E-05	-5.14E-05	3.02E-05	1.45E-05	4.47E-05	-2.49E-17	1.88E-18	-2.30E-17	1.21E-05	1.18E-05	2.39E-05	3.70E-05	1.65E-05	5.35E-05	3.46E-05	1.16E-05	4.63E-05	2.17E-05	-7.38E-07	2.09E-05	1.71E-05	-4.25E-07	1.67E-05	1.45E-05	1.78E-06	1.62E-05	2.28E-05	1.83E-07	2.30E-05	2.52E-05	-3.51E-07	2.48E-05	1
0.76	4.34E-05	-4.82E-06	3.86E-05	0.00017412	8.24E-05	0.00025654	4.34E-18	9.04E-18	1.34E-17	0.000283845	0.000145733	0.000429577	0.000241136	0.000146446	0.000387582	0.000142873	0.00010737	0.000250243	5.24E-05	2.27E-05	7.51E-05	-3.18E-05	5.34E-06	-2.65E-05	-3.96E-05	-5.36E-06	-4.50E-05	7.35E-06	2.60E-06	9.94E-06	-5.78E-05	-2.05E-05	-7.83E-05	1.84E-05	-3.98E-06	1.44E-05	5.53E-05	3.10E-05	8.63E-05	-1.71E-17	-9.58E-18	-2.67E-17	4.34E-05	1.52E-05	5.86E-05	9.99E-05	4.12E-05	0.000141157	3.38E-05	1.90E-05	5.28E-05	2.55E-06	4.00E-06	6.55E-06	-1.49E-05	4.11E-06	-1.08E-05	5.56E-06	2.96E-06	8.53E-06	7.98E-06	7.80E-06	1.58E-05	1.18E-06	1.55E-05	1.66E-05	-3.65E-06	-6.78E-06	-1.04E-05	5.11E-05	3.10E-05	8.21E-05	6.86E-18	4.35E-18	1.12E-17	2.01E-05	9.26E-06	2.94E-05	6.16E-05	2.90E-05	9.06E-05	6.07E-05	2.36E-05	8.43E-05	7.68E-06	1.12E-05	1.89E-05	1.25E-06	3.18E-06	4.43E-06	1.28E-05	-3.31E-07	1.25E-05	6.88E-06	5.94E-06	1.28E-05	4.21E-06	4.72E-06	8.93E-06	-3.30E-05	-1.73E-05	-5.03E-05	3.11E-05	1.52E-05	4.63E-05	-2.42E-17	1.33E-18	-2.29E-17	1.20E-05	1.26E-05	2.46E-05	3.76E-05	1.71E-05	5.47E-05	3.55E-05	1.18E-05	4.73E-05	2.18E-05	-4.89E-07	2.13E-05	1.74E-05	-3.53E-07	1.70E-05	1.49E-05	1.90E-06	1.68E-05	2.33E-05	3.73E-07	2.37E-05	2.56E-05	1.94E-07	2.58E-05	1
0.8	4.61E-05	-3.88E-06	4.23E-05	0.000172921	8.30E-05	0.000255926	2.70E-18	8.18E-18	1.09E-17	0.000282063	0.000145345	0.000427408	0.000240715	0.00014778	0.000388496	0.000143134	0.000107939	0.000251073	5.38E-05	2.42E-05	7.80E-05	-3.26E-05	5.15E-06	-2.74E-05	-3.94E-05	-4.99E-06	-4.44E-05	7.46E-06	2.28E-06	9.74E-06	-5.57E-05	-2.03E-05	-7.61E-05	1.29E-05	-6.60E-06	6.32E-06	5.13E-05	3.08E-05	8.21E-05	-1.74E-17	-9.84E-18	-2.72E-17	4.20E-05	1.54E-05	5.74E-05	9.82E-05	4.15E-05	0.000139735	3.71E-05	2.04E-05	5.75E-05	2.70E-06	4.75E-06	7.44E-06	-1.53E-05	4.23E-06	-1.11E-05	5.26E-06	3.39E-06	8.64E-06	7.84E-06	8.12E-06	1.60E-05	4.80E-07	1.53E-05	1.58E-05	-3.20E-06	-6.27E-06	-9.47E-06	5.11E-05	3.14E-05	8.24E-05	7.64E-18	3.97E-18	1.16E-17	2.10E-05	1.01E-05	3.11E-05	6.15E-05	2.90E-05	9.05E-05	6.11E-05	2.37E-05	8.48E-05	8.10E-06	1.13E-05	1.94E-05	1.60E-06	3.33E-06	4.94E-06	1.29E-05	-2.55E-07	1.27E-05	6.90E-06	6.62E-06	1.35E-05	4.85E-06	4.59E-06	9.44E-06	-3.29E-05	-1.62E-05	-4.91E-05	3.20E-05	1.59E-05	4.79E-05	-2.32E-17	7.51E-19	-2.25E-17	1.19E-05	1.34E-05	2.53E-05	3.81E-05	1.77E-05	5.59E-05	3.64E-05	1.19E-05	4.83E-05	2.20E-05	-2.40E-07	2.18E-05	1.76E-05	-2.88E-07	1.73E-05	1.53E-05	2.00E-06	1.73E-05	2.38E-05	5.65E-07	2.43E-05	2.59E-05	7.97E-07	2.67E-05	1
0.84	4.89E-05	-3.05E-06	4.58E-05	0.000171908	8.36E-05	0.000255468	8.90E-19	7.16E-18	8.05E-18	0.000280579	0.000145024	0.000425603	0.000240474	0.000149103	0.000389577	0.000143542	0.000108556	0.000252099	5.52E-05	2.57E-05	8.09E-05	-3.33E-05	4.97E-06	-2.83E-05	-3.91E-05	-4.64E-06	-4.37E-05	7.61E-06	1.98E-06	9.60E-06	-5.37E-05	-2.02E-05	-7.39E-05	7.58E-06	-9.15E-06	-1.58E-06	4.76E-05	3.05E-05	7.82E-05	-1.76E-17	-1.00E-17	-2.76E-17	4.06E-05	1.57E-05	5.63E-05	9.66E-05	4.19E-05	0.000138499	4.03E-05	2.18E-05	6.20E-05	2.83E-06	5.44E-06	8.28E-06	-1.58E-05	4.34E-06	-1.15E-05	4.95E-06	3.82E-06	8.77E-06	7.67E-06	8.42E-06	1.61E-05	-1.68E-07	1.51E-05	1.49E-05	-2.70E-06	-5.77E-06	-8.48E-06	5.10E-05	3.17E-05	8.27E-05	8.29E-18	3.54E-18	1.18E-17	2.17E-05	1.09E-05	3.26E-05	6.14E-05	2.91E-05	9.04E-05	6.14E-05	2.39E-05	8.52E-05	8.53E-06	1.14E-05	2.00E-05	1.98E-06	3.46E-06	5.44E-06	1.30E-05	-1.65E-07	1.29E-05	7.01E-06	7.24E-06	1.43E-05	5.52E-06	4.44E-06	9.96E-06	-3.27E-05	-1.52E-05	-4.79E-05	3.30E-05	1.65E-05	4.95E-05	-2.19E-17	1.42E-19	-2.18E-17	1.18E-05	1.42E-05	2.60E-05	3.87E-05	1.83E-05	5.70E-05	3.74E-05	1.20E-05	4.93E-05	2.22E-05	8.70E-09	2.22E-05	1.79E-05	-2.30E-07	1.76E-05	1.58E-05	2.10E-06	1.79E-05	2.42E-05	7.59E-07	2.50E-05	2.62E-05	1.46E-06	2.77E-05	1
0.88	5.16E-05	-2.32E-06	4.93E-05	0.000171112	8.41E-05	0.0002552	-1.09E-18	6.00E-18	4.91E-18	0.000279438	0.000144783	0.000424221	0.000240452	0.000150421	0.000390873	0.000144123	0.000109232	0.000253355	5.67E-05	2.71E-05	8.38E-05	-3.39E-05	4.81E-06	-2.91E-05	-3.88E-05	-4.32E-06	-4.31E-05	7.82E-06	1.72E-06	9.54E-06	-5.18E-05	-2.00E-05	-7.18E-05	2.35E-06	-1.16E-05	-9.26E-06	4.42E-05	3.04E-05	7.46E-05	-1.77E-17	-1.02E-17	-2.79E-17	3.93E-05	1.60E-05	5.53E-05	9.53E-05	4.22E-05	0.000137475	4.33E-05	2.30E-05	6.64E-05	2.96E-06	6.09E-06	9.05E-06	-1.63E-05	4.45E-06	-1.18E-05	4.65E-06	4.25E-06	8.90E-06	7.49E-06	8.71E-06	1.62E-05	-7.53E-07	1.49E-05	1.42E-05	-2.17E-06	-5.29E-06	-7.46E-06	5.10E-05	3.19E-05	8.29E-05	8.79E-18	3.05E-18	1.18E-17	2.23E-05	1.17E-05	3.40E-05	6.12E-05	2.91E-05	9.04E-05	6.16E-05	2.40E-05	8.56E-05	8.99E-06	1.15E-05	2.05E-05	2.38E-06	3.57E-06	5.96E-06	1.32E-05	-5.86E-08	1.31E-05	7.22E-06	7.80E-06	1.50E-05	6.24E-06	4.26E-06	1.05E-05	-3.25E-05	-1.42E-05	-4.67E-05	3.40E-05	1.71E-05	5.10E-05	-2.03E-17	-4.92E-19	-2.08E-17	1.17E-05	1.50E-05	2.67E-05	3.93E-05	1.88E-05	5.81E-05	3.83E-05	1.20E-05	5.03E-05	2.24E-05	2.56E-07	2.27E-05	1.81E-05	-1.80E-07	1.79E-05	1.63E-05	2.18E-06	1.85E-05	2.46E-05	9.54E-07	2.56E-05	2.65E-05	2.17E-06	2.87E-05	1
0.92	5.43E-05	-1.72E-06	5.26E-05	0.000170563	8.46E-05	0.000255154	-3.21E-18	4.71E-18	1.50E-18	0.000278679	0.000144636	0.000423315	0.000240686	0.000151743	0.000392429	0.000144899	0.000109973	0.000254872	5.83E-05	2.84E-05	8.67E-05	-3.45E-05	4.68E-06	-2.98E-05	-3.85E-05	-4.02E-06	-4.26E-05	8.08E-06	1.49E-06	9.58E-06	-5.00E-05	-1.98E-05	-6.98E-05	-2.72E-06	-1.40E-05	-1.67E-05	4.11E-05	3.03E-05	7.14E-05	-1.77E-17	-1.02E-17	-2.79E-17	3.82E-05	1.63E-05	5.45E-05	9.41E-05	4.26E-05	0.00013669	4.62E-05	2.42E-05	7.04E-05	3.07E-06	6.68E-06	9.76E-06	-1.67E-05	4.56E-06	-1.22E-05	4.36E-06	4.69E-06	9.05E-06	7.30E-06	8.98E-06	1.63E-05	-1.27E-06	1.48E-05	1.35E-05	-1.59E-06	-4.83E-06	-6.42E-06	5.09E-05	3.22E-05	8.30E-05	9.15E-18	2.53E-18	1.17E-17	2.29E-05	1.24E-05	3.53E-05	6.11E-05	2.92E-05	9.02E-05	6.18E-05	2.41E-05	8.59E-05	9.46E-06	1.16E-05	2.11E-05	2.82E-06	3.66E-06	6.48E-06	1.33E-05	6.29E-08	1.34E-05	7.53E-06	8.29E-06	1.58E-05	7.01E-06	4.06E-06	1.11E-05	-3.23E-05	-1.32E-05	-4.55E-05	3.50E-05	1.76E-05	5.26E-05	-1.84E-17	-1.14E-18	-1.95E-17	1.17E-05	1.57E-05	2.74E-05	3.98E-05	1.93E-05	5.91E-05	3.93E-05	1.21E-05	5.13E-05	2.26E-05	5.00E-07	2.31E-05	1.84E-05	-1.38E-07	1.83E-05	1.68E-05	2.26E-06	1.91E-05	2.51E-05	1.15E-06	2.62E-05	2.67E-05	2.94E-06	2.96E-05	1
0.96	5.70E-05	-1.24E-06	5.58E-05	0.000170286	8.51E-05	0.000255359	-5.46E-18	3.30E-18	-2.16E-18	0.000278336	0.000144593	0.000422929	0.000241209	0.000153074	0.000394283	0.000145888	0.00011079	0.000256677	6.00E-05	2.96E-05	8.96E-05	-3.49E-05	4.56E-06	-3.04E-05	-3.82E-05	-3.76E-06	-4.20E-05	8.42E-06	1.31E-06	9.73E-06	-4.83E-05	-1.97E-05	-6.80E-05	-7.61E-06	-1.62E-05	-2.38E-05	3.83E-05	3.02E-05	6.85E-05	-1.76E-17	-1.02E-17	-2.77E-17	3.71E-05	1.67E-05	5.38E-05	9.31E-05	4.30E-05	0.000136166	4.90E-05	2.53E-05	7.43E-05	3.18E-06	7.21E-06	1.04E-05	-1.72E-05	4.66E-06	-1.25E-05	4.08E-06	5.13E-06	9.21E-06	7.10E-06	9.23E-06	1.63E-05	-1.70E-06	1.47E-05	1.30E-05	-9.69E-07	-4.40E-06	-5.37E-06	5.08E-05	3.23E-05	8.31E-05	9.36E-18	1.96E-18	1.13E-17	2.33E-05	1.30E-05	3.63E-05	6.09E-05	2.92E-05	9.01E-05	6.19E-05	2.42E-05	8.61E-05	9.95E-06	1.17E-05	2.16E-05	3.28E-06	3.72E-06	7.00E-06	1.36E-05	2.00E-07	1.38E-05	7.95E-06	8.72E-06	1.67E-05	7.83E-06	3.84E-06	1.17E-05	-3.21E-05	-1.23E-05	-4.43E-05	3.60E-05	1.81E-05	5.41E-05	-1.62E-17	-1.81E-18	-1.80E-17	1.17E-05	1.64E-05	2.81E-05	4.04E-05	1.97E-05	6.01E-05	4.02E-05	1.21E-05	5.24E-05	2.29E-05	7.39E-07	2.36E-05	1.87E-05	-1.04E-07	1.86E-05	1.74E-05	2.33E-06	1.97E-05	2.55E-05	1.34E-06	2.68E-05	2.68E-05	3.74E-06	3.06E-05	1
1	5.97E-05	-9.10E-07	5.88E-05	0.0001703	8.55E-05	0.000255838	-7.81E-18	1.79E-18	-6.02E-18	0.000278434	0.000144662	0.000423096	0.000242047	0.000154422	0.000396468	0.000147107	0.000111686	0.000258793	6.17E-05	3.08E-05	9.25E-05	-3.53E-05	4.46E-06	-3.09E-05	-3.79E-05	-3.53E-06	-4.14E-05	8.84E-06	1.16E-06	1.00E-05	-4.68E-05	-1.95E-05	-6.63E-05	-1.23E-05	-1.84E-05	-3.07E-05	3.59E-05	3.02E-05	6.61E-05	-1.73E-17	-1.01E-17	-2.74E-17	3.62E-05	1.71E-05	5.32E-05	9.24E-05	4.35E-05	0.000135923	5.16E-05	2.63E-05	7.79E-05	3.29E-06	7.68E-06	1.10E-05	-1.76E-05	4.76E-06	-1.28E-05	3.83E-06	5.57E-06	9.40E-06	6.90E-06	9.47E-06	1.64E-05	-2.05E-06	1.46E-05	1.26E-05	-3.13E-07	-4.00E-06	-4.32E-06	5.07E-05	3.25E-05	8.32E-05	9.41E-18	1.36E-18	1.08E-17	2.36E-05	1.36E-05	3.72E-05	6.07E-05	2.93E-05	9.00E-05	6.20E-05	2.43E-05	8.63E-05	1.05E-05	1.17E-05	2.21E-05	3.78E-06	3.76E-06	7.54E-06	1.38E-05	3.51E-07	1.42E-05	8.48E-06	9.08E-06	1.76E-05	8.69E-06	3.60E-06	1.23E-05	-3.18E-05	-1.14E-05	-4.32E-05	3.70E-05	1.86E-05	5.56E-05	-1.38E-17	-2.47E-18	-1.63E-17	1.17E-05	1.71E-05	2.88E-05	4.10E-05	2.01E-05	6.11E-05	4.12E-05	1.21E-05	5.34E-05	2.32E-05	9.74E-07	2.42E-05	1.90E-05	-7.76E-08	1.89E-05	1.80E-05	2.38E-06	2.03E-05	2.59E-05	1.54E-06	2.74E-05	2.69E-05	4.59E-06	3.15E-05	1
1.04	6.23E-05	-7.17E-07	6.16E-05	0.000170623	8.60E-05	0.000256611	-1.02E-17	2.01E-19	-1.00E-17	0.000278994	0.000144849	0.000423844	0.000243222	0.000155791	0.000399012	0.000148568	0.000112668	0.000261236	6.36E-05	3.19E-05	9.55E-05	-3.57E-05	4.39E-06	-3.13E-05	-3.76E-05	-3.32E-06	-4.09E-05	9.34E-06	1.06E-06	1.04E-05	-4.54E-05	-1.93E-05	-6.47E-05	-1.68E-05	-2.03E-05	-3.71E-05	3.39E-05	3.03E-05	6.42E-05	-1.70E-17	-9.90E-18	-2.69E-17	3.54E-05	1.75E-05	5.29E-05	9.20E-05	4.40E-05	0.000135977	5.41E-05	2.72E-05	8.12E-05	3.39E-06	8.08E-06	1.15E-05	-1.80E-05	4.86E-06	-1.32E-05	3.60E-06	6.01E-06	9.61E-06	6.70E-06	9.70E-06	1.64E-05	-2.29E-06	1.45E-05	1.22E-05	3.79E-07	-3.64E-06	-3.26E-06	5.05E-05	3.26E-05	8.31E-05	9.29E-18	7.31E-19	1.00E-17	2.38E-05	1.40E-05	3.78E-05	6.05E-05	2.93E-05	8.98E-05	6.20E-05	2.44E-05	8.64E-05	1.10E-05	1.17E-05	2.27E-05	4.30E-06	3.78E-06	8.09E-06	1.41E-05	5.16E-07	1.46E-05	9.13E-06	9.36E-06	1.85E-05	9.61E-06	3.34E-06	1.30E-05	-3.15E-05	-1.06E-05	-4.20E-05	3.80E-05	1.90E-05	5.70E-05	-1.12E-17	-3.13E-18	-1.43E-17	1.17E-05	1.78E-05	2.95E-05	4.16E-05	2.04E-05	6.21E-05	4.23E-05	1.21E-05	5.44E-05	2.36E-05	1.20E-06	2.48E-05	1.94E-05	-6.00E-08	1.93E-05	1.86E-05	2.42E-06	2.10E-05	2.63E-05	1.73E-06	2.80E-05	2.70E-05	5.48E-06	3.25E-05	1
1.08	6.50E-05	-6.71E-07	6.43E-05	0.000171267	8.64E-05	0.000257693	-1.27E-17	-1.46E-18	-1.42E-17	0.000280027	0.00014516	0.000425187	0.000244751	0.000157185	0.000401936	0.000150281	0.000113739	0.00026402	6.55E-05	3.29E-05	9.84E-05	-3.59E-05	4.35E-06	-3.15E-05	-3.73E-05	-3.16E-06	-4.04E-05	9.95E-06	1.00E-06	1.10E-05	-4.41E-05	-1.91E-05	-6.32E-05	-2.10E-05	-2.22E-05	-4.32E-05	3.23E-05	3.04E-05	6.27E-05	-1.65E-17	-9.65E-18	-2.62E-17	3.47E-05	1.80E-05	5.27E-05	9.18E-05	4.46E-05	0.000136341	5.64E-05	2.79E-05	8.43E-05	3.49E-06	8.42E-06	1.19E-05	-1.84E-05	4.96E-06	-1.34E-05	3.40E-06	6.44E-06	9.84E-06	6.50E-06	9.91E-06	1.64E-05	-2.44E-06	1.45E-05	1.21E-05	1.10E-06	-3.31E-06	-2.21E-06	5.04E-05	3.27E-05	8.30E-05	9.02E-18	8.16E-20	9.10E-18	2.39E-05	1.44E-05	3.83E-05	6.03E-05	2.93E-05	8.96E-05	6.20E-05	2.45E-05	8.64E-05	1.15E-05	1.17E-05	2.32E-05	4.86E-06	3.78E-06	8.64E-06	1.45E-05	6.95E-07	1.52E-05	9.91E-06	9.56E-06	1.95E-05	1.06E-05	3.07E-06	1.36E-05	-3.11E-05	-9.84E-06	-4.10E-05	3.91E-05	1.93E-05	5.84E-05	-8.37E-18	-3.78E-18	-1.21E-17	1.18E-05	1.84E-05	3.02E-05	4.22E-05	2.07E-05	6.29E-05	4.33E-05	1.21E-05	5.55E-05	2.39E-05	1.43E-06	2.54E-05	1.97E-05	-5.06E-08	1.97E-05	1.92E-05	2.46E-06	2.17E-05	2.67E-05	1.92E-06	2.86E-05	2.70E-05	6.39E-06	3.34E-05	1
1.12	6.76E-05	-7.72E-07	6.68E-05	0.000172239	8.69E-05	0.000259095	-1.52E-17	-3.16E-18	-1.84E-17	0.000281539	0.000145597	0.000427135	0.000246647	0.000158608	0.000405255	0.000152253	0.000114901	0.000267153	6.76E-05	3.38E-05	0.000101363	-3.60E-05	4.33E-06	-3.16E-05	-3.69E-05	-3.02E-06	-3.99E-05	1.07E-05	9.99E-07	1.17E-05	-4.29E-05	-1.90E-05	-6.19E-05	-2.50E-05	-2.39E-05	-4.89E-05	3.11E-05	3.06E-05	6.17E-05	-1.60E-17	-9.32E-18	-2.53E-17	3.42E-05	1.85E-05	5.27E-05	9.19E-05	4.52E-05	0.000137026	5.85E-05	2.86E-05	8.72E-05	3.60E-06	8.69E-06	1.23E-05	-1.88E-05	5.06E-06	-1.37E-05	3.24E-06	6.87E-06	1.01E-05	6.31E-06	1.01E-05	1.64E-05	-2.47E-06	1.45E-05	1.20E-05	1.86E-06	-3.03E-06	-1.17E-06	5.02E-05	3.27E-05	8.29E-05	8.58E-18	-5.81E-19	8.00E-18	2.39E-05	1.47E-05	3.85E-05	6.01E-05	2.93E-05	8.94E-05	6.19E-05	2.46E-05	8.65E-05	1.21E-05	1.17E-05	2.38E-05	5.45E-06	3.75E-06	9.21E-06	1.49E-05	8.85E-07	1.58E-05	1.08E-05	9.69E-06	2.05E-05	1.16E-05	2.78E-06	1.44E-05	-3.08E-05	-9.18E-06	-4.00E-05	4.02E-05	1.96E-05	5.98E-05	-5.43E-18	-4.40E-18	-9.83E-18	1.18E-05	1.90E-05	3.08E-05	4.29E-05	2.09E-05	6.38E-05	4.44E-05	1.21E-05	5.65E-05	2.44E-05	1.64E-06	2.60E-05	2.01E-05	-4.93E-08	2.01E-05	1.99E-05	2.48E-06	2.24E-05	2.71E-05	2.10E-06	2.92E-05	2.70E-05	7.32E-06	3.43E-05	1
1.16	7.02E-05	-1.02E-06	6.92E-05	0.000173543	8.73E-05	0.000260823	-1.77E-17	-4.89E-18	-2.26E-17	0.000283527	0.000146159	0.000429686	0.000248914	0.000160063	0.000408978	0.000154485	0.000116153	0.000270638	6.97E-05	3.46E-05	0.000104352	-3.60E-05	4.34E-06	-3.16E-05	-3.65E-05	-2.92E-06	-3.94E-05	1.15E-05	1.05E-06	1.25E-05	-4.19E-05	-1.88E-05	-6.07E-05	-2.88E-05	-2.55E-05	-5.43E-05	3.03E-05	3.08E-05	6.11E-05	-1.54E-17	-8.92E-18	-2.43E-17	3.38E-05	1.90E-05	5.29E-05	9.22E-05	4.58E-05	0.000138037	6.05E-05	2.92E-05	8.97E-05	3.71E-06	8.90E-06	1.26E-05	-1.91E-05	5.16E-06	-1.40E-05	3.12E-06	7.29E-06	1.04E-05	6.15E-06	1.03E-05	1.64E-05	-2.38E-06	1.45E-05	1.21E-05	2.64E-06	-2.79E-06	-1.50E-07	5.00E-05	3.27E-05	8.27E-05	7.98E-18	-1.25E-18	6.73E-18	2.37E-05	1.49E-05	3.86E-05	5.98E-05	2.93E-05	8.91E-05	6.18E-05	2.46E-05	8.64E-05	1.27E-05	1.17E-05	2.43E-05	6.08E-06	3.71E-06	9.78E-06	1.53E-05	1.08E-06	1.64E-05	1.18E-05	9.75E-06	2.16E-05	1.26E-05	2.48E-06	1.51E-05	-3.05E-05	-8.59E-06	-3.91E-05	4.12E-05	1.99E-05	6.11E-05	-2.39E-18	-5.00E-18	-7.39E-18	1.19E-05	1.96E-05	3.15E-05	4.35E-05	2.11E-05	6.46E-05	4.55E-05	1.20E-05	5.76E-05	2.48E-05	1.84E-06	2.67E-05	2.06E-05	-5.57E-08	2.05E-05	2.06E-05	2.49E-06	2.31E-05	2.74E-05	2.29E-06	2.97E-05	2.70E-05	8.27E-06	3.53E-05	1
1.2	7.27E-05	-1.41E-06	7.13E-05	0.000175177	8.77E-05	0.000262879	-2.01E-17	-6.62E-18	-2.67E-17	0.000285983	0.000146845	0.000432828	0.000251556	0.000161552	0.000413108	0.000156978	0.000117495	0.000274474	7.20E-05	3.54E-05	0.000107373	-3.59E-05	4.37E-06	-3.15E-05	-3.61E-05	-2.85E-06	-3.90E-05	1.24E-05	1.14E-06	1.36E-05	-4.09E-05	-1.86E-05	-5.96E-05	-3.23E-05	-2.69E-05	-5.92E-05	2.99E-05	3.11E-05	6.10E-05	-1.47E-17	-8.45E-18	-2.32E-17	3.36E-05	1.96E-05	5.32E-05	9.29E-05	4.65E-05	0.000139378	6.23E-05	2.97E-05	9.20E-05	3.83E-06	9.04E-06	1.29E-05	-1.94E-05	5.26E-06	-1.42E-05	3.05E-06	7.70E-06	1.07E-05	6.00E-06	1.05E-05	1.65E-05	-2.18E-06	1.45E-05	1.24E-05	3.44E-06	-2.59E-06	8.50E-07	4.98E-05	3.26E-05	8.24E-05	7.23E-18	-1.92E-18	5.31E-18	2.35E-05	1.50E-05	3.84E-05	5.95E-05	2.93E-05	8.89E-05	6.16E-05	2.47E-05	8.64E-05	1.32E-05	1.16E-05	2.49E-05	6.73E-06	3.64E-06	1.04E-05	1.58E-05	1.29E-06	1.71E-05	1.30E-05	9.72E-06	2.27E-05	1.37E-05	2.17E-06	1.59E-05	-3.01E-05	-8.08E-06	-3.82E-05	4.23E-05	2.01E-05	6.24E-05	7.09E-19	-5.55E-18	-4.84E-18	1.21E-05	2.01E-05	3.21E-05	4.42E-05	2.12E-05	6.54E-05	4.67E-05	1.20E-05	5.87E-05	2.53E-05	2.04E-06	2.74E-05	2.10E-05	-6.96E-08	2.09E-05	2.13E-05	2.49E-06	2.38E-05	2.78E-05	2.46E-06	3.03E-05	2.70E-05	9.22E-06	3.62E-05	1
1.24	7.53E-05	-1.94E-06	7.33E-05	0.000177138	8.81E-05	0.000265261	-2.25E-17	-8.33E-18	-3.08E-17	0.000288891	0.000147651	0.000436543	0.000254568	0.000163075	0.000417643	0.000159728	0.000118926	0.000278653	7.44E-05	3.60E-05	0.00011043	-3.57E-05	4.44E-06	-3.12E-05	-3.57E-05	-2.81E-06	-3.85E-05	1.35E-05	1.29E-06	1.48E-05	-4.01E-05	-1.85E-05	-5.86E-05	-3.55E-05	-2.81E-05	-6.37E-05	2.99E-05	3.15E-05	6.14E-05	-1.40E-17	-7.92E-18	-2.19E-17	3.35E-05	2.03E-05	5.38E-05	9.38E-05	4.72E-05	0.000141048	6.40E-05	3.01E-05	9.41E-05	3.97E-06	9.13E-06	1.31E-05	-1.97E-05	5.35E-06	-1.44E-05	3.03E-06	8.09E-06	1.11E-05	5.89E-06	1.06E-05	1.65E-05	-1.84E-06	1.46E-05	1.28E-05	4.26E-06	-2.44E-06	1.82E-06	4.96E-05	3.25E-05	8.21E-05	6.32E-18	-2.57E-18	3.75E-18	2.31E-05	1.50E-05	3.81E-05	5.93E-05	2.93E-05	8.86E-05	6.14E-05	2.48E-05	8.63E-05	1.38E-05	1.16E-05	2.54E-05	7.42E-06	3.56E-06	1.10E-05	1.64E-05	1.51E-06	1.79E-05	1.42E-05	9.62E-06	2.39E-05	1.49E-05	1.85E-06	1.67E-05	-2.98E-05	-7.66E-06	-3.75E-05	4.34E-05	2.03E-05	6.37E-05	3.83E-18	-6.06E-18	-2.23E-18	1.22E-05	2.06E-05	3.28E-05	4.49E-05	2.13E-05	6.62E-05	4.78E-05	1.19E-05	5.98E-05	2.59E-05	2.23E-06	2.81E-05	2.15E-05	-9.04E-08	2.14E-05	2.20E-05	2.48E-06	2.45E-05	2.82E-05	2.64E-06	3.08E-05	2.69E-05	1.02E-05	3.71E-05	1
1.28	7.78E-05	-2.60E-06	7.52E-05	0.000179415	8.85E-05	0.000267963	-2.48E-17	-1.00E-17	-3.48E-17	0.000292231	0.000148573	0.000440804	0.000257941	0.000164632	0.000422573	0.000162728	0.00012044	0.000283168	7.69E-05	3.67E-05	0.000113528	-3.53E-05	4.53E-06	-3.08E-05	-3.52E-05	-2.80E-06	-3.80E-05	1.47E-05	1.50E-06	1.62E-05	-3.94E-05	-1.83E-05	-5.77E-05	-3.85E-05	-2.92E-05	-6.78E-05	3.03E-05	3.19E-05	6.22E-05	-1.31E-17	-7.33E-18	-2.05E-17	3.35E-05	2.10E-05	5.45E-05	9.50E-05	4.80E-05	0.000143044	6.55E-05	3.04E-05	9.59E-05	4.12E-06	9.15E-06	1.33E-05	-2.00E-05	5.45E-06	-1.45E-05	3.07E-06	8.47E-06	1.15E-05	5.81E-06	1.08E-05	1.66E-05	-1.38E-06	1.47E-05	1.33E-05	5.09E-06	-2.33E-06	2.76E-06	4.93E-05	3.24E-05	8.17E-05	5.26E-18	-3.21E-18	2.06E-18	2.27E-05	1.49E-05	3.76E-05	5.89E-05	2.93E-05	8.83E-05	6.12E-05	2.49E-05	8.61E-05	1.44E-05	1.15E-05	2.59E-05	8.13E-06	3.46E-06	1.16E-05	1.70E-05	1.73E-06	1.87E-05	1.56E-05	9.44E-06	2.51E-05	1.61E-05	1.52E-06	1.76E-05	-2.95E-05	-7.33E-06	-3.68E-05	4.45E-05	2.04E-05	6.49E-05	6.92E-18	-6.51E-18	4.08E-19	1.23E-05	2.11E-05	3.34E-05	4.56E-05	2.13E-05	6.69E-05	4.90E-05	1.18E-05	6.09E-05	2.65E-05	2.40E-06	2.89E-05	2.20E-05	-1.18E-07	2.19E-05	2.28E-05	2.47E-06	2.53E-05	2.86E-05	2.80E-06	3.14E-05	2.68E-05	1.11E-05	3.80E-05	1
1.32	8.03E-05	-3.38E-06	7.69E-05	0.000181996	8.90E-05	0.000270973	-2.69E-17	-1.16E-17	-3.85E-17	0.000295974	0.000149603	0.000445577	0.000261662	0.000166223	0.000427885	0.000165968	0.000122033	0.000288001	7.95E-05	3.72E-05	0.000116672	-3.49E-05	4.65E-06	-3.02E-05	-3.48E-05	-2.81E-06	-3.76E-05	1.60E-05	1.75E-06	1.78E-05	-3.87E-05	-1.81E-05	-5.68E-05	-4.13E-05	-3.02E-05	-7.15E-05	3.10E-05	3.25E-05	6.35E-05	-1.23E-17	-6.69E-18	-1.90E-17	3.37E-05	2.18E-05	5.54E-05	9.65E-05	4.89E-05	0.000145359	6.69E-05	3.06E-05	9.76E-05	4.30E-06	9.12E-06	1.34E-05	-2.02E-05	5.55E-06	-1.46E-05	3.16E-06	8.84E-06	1.20E-05	5.77E-06	1.09E-05	1.67E-05	-7.86E-07	1.48E-05	1.40E-05	5.94E-06	-2.27E-06	3.67E-06	4.91E-05	3.22E-05	8.13E-05	4.07E-18	-3.81E-18	2.57E-19	2.21E-05	1.48E-05	3.69E-05	5.86E-05	2.93E-05	8.79E-05	6.10E-05	2.50E-05	8.59E-05	1.51E-05	1.14E-05	2.65E-05	8.88E-06	3.35E-06	1.22E-05	1.77E-05	1.95E-06	1.96E-05	1.72E-05	9.20E-06	2.64E-05	1.73E-05	1.19E-06	1.85E-05	-2.92E-05	-7.08E-06	-3.63E-05	4.56E-05	2.04E-05	6.61E-05	9.94E-18	-6.89E-18	3.04E-18	1.25E-05	2.15E-05	3.40E-05	4.63E-05	2.13E-05	6.76E-05	5.02E-05	1.18E-05	6.20E-05	2.71E-05	2.56E-06	2.97E-05	2.25E-05	-1.51E-07	2.24E-05	2.36E-05	2.44E-06	2.61E-05	2.90E-05	2.96E-06	3.20E-05	2.68E-05	1.20E-05	3.88E-05	1
1.36	8.27E-05	-4.27E-06	7.85E-05	0.000184865	8.94E-05	0.000274279	-2.89E-17	-1.31E-17	-4.19E-17	0.000300088	0.000150732	0.000450821	0.000265714	0.000167847	0.000433561	0.000169437	0.0001237	0.000293137	8.22E-05	3.77E-05	0.000119868	-3.43E-05	4.80E-06	-2.95E-05	-3.42E-05	-2.86E-06	-3.71E-05	1.75E-05	2.06E-06	1.95E-05	-3.81E-05	-1.80E-05	-5.61E-05	-4.38E-05	-3.10E-05	-7.48E-05	3.22E-05	3.30E-05	6.52E-05	-1.14E-17	-5.99E-18	-1.74E-17	3.40E-05	2.26E-05	5.65E-05	9.82E-05	4.98E-05	0.000147984	6.82E-05	3.08E-05	9.90E-05	4.51E-06	9.04E-06	1.36E-05	-2.03E-05	5.65E-06	-1.47E-05	3.32E-06	9.18E-06	1.25E-05	5.79E-06	1.11E-05	1.69E-05	-5.69E-08	1.49E-05	1.49E-05	6.78E-06	-2.25E-06	4.53E-06	4.88E-05	3.20E-05	8.08E-05	2.75E-18	-4.39E-18	-1.63E-18	2.15E-05	1.45E-05	3.60E-05	5.83E-05	2.93E-05	8.76E-05	6.07E-05	2.51E-05	8.58E-05	1.57E-05	1.13E-05	2.70E-05	9.66E-06	3.23E-06	1.29E-05	1.84E-05	2.17E-06	2.06E-05	1.88E-05	8.88E-06	2.77E-05	1.86E-05	8.63E-07	1.94E-05	-2.89E-05	-6.91E-06	-3.58E-05	4.67E-05	2.05E-05	6.72E-05	1.28E-17	-7.21E-18	5.63E-18	1.26E-05	2.19E-05	3.45E-05	4.70E-05	2.13E-05	6.82E-05	5.14E-05	1.17E-05	6.31E-05	2.78E-05	2.71E-06	3.05E-05	2.31E-05	-1.89E-07	2.29E-05	2.44E-05	2.41E-06	2.68E-05	2.94E-05	3.12E-06	3.25E-05	2.67E-05	1.29E-05	3.97E-05	1
1.4	8.52E-05	-5.27E-06	7.99E-05	0.000188002	8.99E-05	0.000277862	-3.06E-17	-1.45E-17	-4.51E-17	0.000304537	0.000151951	0.000456487	0.000270075	0.0001695	0.000439575	0.000173119	0.000125432	0.000298551	8.50E-05	3.81E-05	0.000123119	-3.36E-05	4.97E-06	-2.86E-05	-3.36E-05	-2.92E-06	-3.66E-05	1.91E-05	2.42E-06	2.15E-05	-3.76E-05	-1.78E-05	-5.54E-05	-4.61E-05	-3.16E-05	-7.78E-05	3.37E-05	3.36E-05	6.73E-05	-1.05E-17	-5.26E-18	-1.58E-17	3.44E-05	2.35E-05	5.78E-05	0.000100213	5.07E-05	0.000150906	6.94E-05	3.09E-05	0.000100244	4.74E-06	8.92E-06	1.37E-05	-2.05E-05	5.76E-06	-1.47E-05	3.54E-06	9.50E-06	1.30E-05	5.85E-06	1.12E-05	1.71E-05	8.07E-07	1.51E-05	1.59E-05	7.63E-06	-2.27E-06	5.35E-06	4.85E-05	3.17E-05	8.02E-05	1.32E-18	-4.91E-18	-3.60E-18	2.08E-05	1.43E-05	3.50E-05	5.79E-05	2.93E-05	8.72E-05	6.04E-05	2.51E-05	8.55E-05	1.63E-05	1.12E-05	2.75E-05	1.05E-05	3.10E-06	1.36E-05	1.91E-05	2.39E-06	2.15E-05	2.06E-05	8.50E-06	2.91E-05	1.99E-05	5.33E-07	2.04E-05	-2.87E-05	-6.82E-06	-3.55E-05	4.78E-05	2.05E-05	6.83E-05	1.56E-17	-7.44E-18	8.14E-18	1.28E-05	2.22E-05	3.50E-05	4.77E-05	2.12E-05	6.89E-05	5.27E-05	1.16E-05	6.43E-05	2.85E-05	2.85E-06	3.14E-05	2.37E-05	-2.31E-07	2.34E-05	2.53E-05	2.37E-06	2.76E-05	2.98E-05	3.26E-06	3.31E-05	2.67E-05	1.38E-05	4.05E-05	1
1.44	8.76E-05	-6.36E-06	8.13E-05	0.000191386	9.03E-05	0.000281702	-3.22E-17	-1.57E-17	-4.79E-17	0.000309277	0.000153248	0.000462525	0.000274722	0.000171181	0.000445902	0.000176999	0.000127223	0.000304221	8.79E-05	3.85E-05	0.00012643	-3.28E-05	5.16E-06	-2.76E-05	-3.30E-05	-3.01E-06	-3.60E-05	2.08E-05	2.83E-06	2.37E-05	-3.70E-05	-1.77E-05	-5.47E-05	-4.82E-05	-3.21E-05	-8.04E-05	3.55E-05	3.43E-05	6.98E-05	-9.62E-18	-4.49E-18	-1.41E-17	3.49E-05	2.44E-05	5.93E-05	0.000102434	5.17E-05	0.00015411	7.05E-05	3.09E-05	0.000101338	5.02E-06	8.75E-06	1.38E-05	-2.06E-05	5.86E-06	-1.47E-05	3.83E-06	9.80E-06	1.36E-05	5.98E-06	1.13E-05	1.73E-05	1.81E-06	1.52E-05	1.70E-05	8.46E-06	-2.34E-06	6.13E-06	4.82E-05	3.15E-05	7.96E-05	-2.25E-19	-5.39E-18	-5.61E-18	2.00E-05	1.39E-05	3.39E-05	5.76E-05	2.92E-05	8.68E-05	6.01E-05	2.52E-05	8.53E-05	1.69E-05	1.11E-05	2.80E-05	1.13E-05	2.96E-06	1.43E-05	1.99E-05	2.60E-06	2.25E-05	2.24E-05	8.07E-06	3.05E-05	2.12E-05	2.04E-07	2.14E-05	-2.84E-05	-6.80E-06	-3.52E-05	4.89E-05	2.04E-05	6.93E-05	1.81E-17	-7.59E-18	1.05E-17	1.29E-05	2.26E-05	3.55E-05	4.84E-05	2.11E-05	6.95E-05	5.39E-05	1.15E-05	6.54E-05	2.93E-05	2.98E-06	3.23E-05	2.43E-05	-2.77E-07	2.40E-05	2.61E-05	2.32E-06	2.85E-05	3.03E-05	3.40E-06	3.37E-05	2.67E-05	1.46E-05	4.13E-05	1
1.48	9.01E-05	-7.52E-06	8.25E-05	0.000194991	9.08E-05	0.000285776	-3.35E-17	-1.68E-17	-5.03E-17	0.000314265	0.000154611	0.000468876	0.000279625	0.000172885	0.00045251	0.000181056	0.000129062	0.000310119	9.10E-05	3.88E-05	0.000129806	-3.18E-05	5.37E-06	-2.65E-05	-3.23E-05	-3.11E-06	-3.54E-05	2.27E-05	3.28E-06	2.60E-05	-3.65E-05	-1.75E-05	-5.40E-05	-5.01E-05	-3.25E-05	-8.26E-05	3.76E-05	3.51E-05	7.26E-05	-8.74E-18	-3.70E-18	-1.24E-17	3.55E-05	2.54E-05	6.10E-05	0.000104873	5.27E-05	0.00015758	7.15E-05	3.08E-05	0.000102301	5.33E-06	8.54E-06	1.39E-05	-2.06E-05	5.97E-06	-1.46E-05	4.19E-06	1.01E-05	1.43E-05	6.17E-06	1.15E-05	1.76E-05	2.94E-06	1.54E-05	1.83E-05	9.29E-06	-2.44E-06	6.85E-06	4.78E-05	3.12E-05	7.90E-05	-1.86E-18	-5.80E-18	-7.66E-18	1.92E-05	1.35E-05	3.27E-05	5.72E-05	2.92E-05	8.63E-05	5.98E-05	2.53E-05	8.51E-05	1.75E-05	1.10E-05	2.85E-05	1.21E-05	2.81E-06	1.50E-05	2.08E-05	2.81E-06	2.36E-05	2.44E-05	7.57E-06	3.20E-05	2.25E-05	-1.20E-07	2.24E-05	-2.83E-05	-6.86E-06	-3.51E-05	5.00E-05	2.03E-05	7.03E-05	2.04E-17	-7.64E-18	1.28E-17	1.31E-05	2.29E-05	3.60E-05	4.91E-05	2.09E-05	7.01E-05	5.52E-05	1.14E-05	6.66E-05	3.01E-05	3.09E-06	3.32E-05	2.49E-05	-3.26E-07	2.46E-05	2.70E-05	2.26E-06	2.93E-05	3.07E-05	3.53E-06	3.42E-05	2.67E-05	1.54E-05	4.21E-05	1
1.52	9.25E-05	-8.75E-06	8.37E-05	0.000198791	9.13E-05	0.000290059	-3.45E-17	-1.77E-17	-5.23E-17	0.000319453	0.000156027	0.00047548	0.000284755	0.000174609	0.000459364	0.000185272	0.000130942	0.000316214	9.41E-05	3.91E-05	0.000133249	-3.08E-05	5.61E-06	-2.52E-05	-3.16E-05	-3.23E-06	-3.48E-05	2.48E-05	3.78E-06	2.86E-05	-3.60E-05	-1.73E-05	-5.34E-05	-5.19E-05	-3.27E-05	-8.46E-05	3.99E-05	3.59E-05	7.58E-05	-7.88E-18	-2.89E-18	-1.08E-17	3.63E-05	2.65E-05	6.28E-05	0.000107512	5.38E-05	0.000161294	7.24E-05	3.07E-05	0.000103156	5.68E-06	8.30E-06	1.40E-05	-2.06E-05	6.08E-06	-1.45E-05	4.63E-06	1.03E-05	1.50E-05	6.44E-06	1.16E-05	1.80E-05	4.20E-06	1.56E-05	1.98E-05	1.01E-05	-2.57E-06	7.53E-06	4.74E-05	3.09E-05	7.83E-05	-3.56E-18	-6.15E-18	-9.72E-18	1.83E-05	1.31E-05	3.14E-05	5.68E-05	2.91E-05	8.59E-05	5.94E-05	2.54E-05	8.48E-05	1.81E-05	1.09E-05	2.91E-05	1.30E-05	2.67E-06	1.57E-05	2.17E-05	3.00E-06	2.47E-05	2.65E-05	7.02E-06	3.35E-05	2.39E-05	-4.38E-07	2.35E-05	-2.81E-05	-6.99E-06	-3.51E-05	5.11E-05	2.02E-05	7.13E-05	2.24E-17	-7.60E-18	1.48E-17	1.32E-05	2.32E-05	3.64E-05	4.99E-05	2.08E-05	7.07E-05	5.64E-05	1.13E-05	6.78E-05	3.10E-05	3.19E-06	3.41E-05	2.55E-05	-3.76E-07	2.52E-05	2.79E-05	2.21E-06	3.01E-05	3.12E-05	3.65E-06	3.48E-05	2.68E-05	1.61E-05	4.29E-05	1
1.56	9.49E-05	-1.00E-05	8.49E-05	0.000202758	9.18E-05	0.000294523	-3.53E-17	-1.84E-17	-5.37E-17	0.000324791	0.000157483	0.000482274	0.00029008	0.000176348	0.000466428	0.000189625	0.000132851	0.000322476	9.73E-05	3.94E-05	0.000136765	-2.96E-05	5.86E-06	-2.37E-05	-3.08E-05	-3.36E-06	-3.41E-05	2.70E-05	4.32E-06	3.13E-05	-3.55E-05	-1.72E-05	-5.27E-05	-5.34E-05	-3.28E-05	-8.62E-05	4.25E-05	3.67E-05	7.93E-05	-7.06E-18	-2.06E-18	-9.13E-18	3.71E-05	2.77E-05	6.48E-05	0.00011033	5.49E-05	0.000165233	7.33E-05	3.06E-05	0.000103931	6.09E-06	8.03E-06	1.41E-05	-2.05E-05	6.19E-06	-1.43E-05	5.14E-06	1.06E-05	1.57E-05	6.78E-06	1.17E-05	1.85E-05	5.60E-06	1.57E-05	2.13E-05	1.09E-05	-2.73E-06	8.15E-06	4.70E-05	3.05E-05	7.76E-05	-5.33E-18	-6.43E-18	-1.18E-17	1.74E-05	1.26E-05	3.00E-05	5.64E-05	2.91E-05	8.54E-05	5.91E-05	2.55E-05	8.46E-05	1.88E-05	1.08E-05	2.96E-05	1.39E-05	2.52E-06	1.65E-05	2.26E-05	3.18E-06	2.58E-05	2.87E-05	6.43E-06	3.51E-05	2.53E-05	-7.47E-07	2.46E-05	-2.80E-05	-7.17E-06	-3.52E-05	5.21E-05	2.01E-05	7.22E-05	2.41E-17	-7.46E-18	1.66E-17	1.34E-05	2.34E-05	3.68E-05	5.06E-05	2.06E-05	7.12E-05	5.77E-05	1.12E-05	6.89E-05	3.18E-05	3.28E-06	3.51E-05	2.62E-05	-4.27E-07	2.58E-05	2.88E-05	2.15E-06	3.10E-05	3.16E-05	3.77E-06	3.54E-05	2.69E-05	1.67E-05	4.37E-05	1
1.6	9.73E-05	-1.13E-05	8.60E-05	0.000206863	9.23E-05	0.00029914	-3.58E-17	-1.89E-17	-5.47E-17	0.000330228	0.000158965	0.000489193	0.000295567	0.000178096	0.000473663	0.000194091	0.00013478	0.000328871	0.00010065	3.97E-05	0.000140354	-2.83E-05	6.13E-06	-2.22E-05	-2.99E-05	-3.50E-06	-3.34E-05	2.93E-05	4.90E-06	3.42E-05	-3.49E-05	-1.70E-05	-5.19E-05	-5.49E-05	-3.28E-05	-8.76E-05	4.53E-05	3.76E-05	8.30E-05	-6.30E-18	-1.24E-18	-7.54E-18	3.80E-05	2.89E-05	6.69E-05	0.000113308	5.61E-05	0.000169372	7.42E-05	3.05E-05	0.00010465	6.54E-06	7.75E-06	1.43E-05	-2.04E-05	6.30E-06	-1.41E-05	5.72E-06	1.08E-05	1.65E-05	7.20E-06	1.18E-05	1.90E-05	7.12E-06	1.59E-05	2.30E-05	1.16E-05	-2.92E-06	8.72E-06	4.66E-05	3.02E-05	7.68E-05	-7.14E-18	-6.63E-18	-1.38E-17	1.65E-05	1.22E-05	2.87E-05	5.59E-05	2.90E-05	8.49E-05	5.88E-05	2.55E-05	8.43E-05	1.94E-05	1.07E-05	3.00E-05	1.49E-05	2.37E-06	1.72E-05	2.36E-05	3.35E-06	2.69E-05	3.10E-05	5.79E-06	3.68E-05	2.67E-05	-1.05E-06	2.56E-05	-2.80E-05	-7.42E-06	-3.54E-05	5.32E-05	1.99E-05	7.31E-05	2.54E-17	-7.21E-18	1.82E-17	1.35E-05	2.37E-05	3.71E-05	5.14E-05	2.04E-05	7.18E-05	5.90E-05	1.11E-05	7.01E-05	3.27E-05	3.35E-06	3.61E-05	2.69E-05	-4.78E-07	2.64E-05	2.97E-05	2.08E-06	3.18E-05	3.22E-05	3.87E-06	3.60E-05	2.71E-05	1.73E-05	4.44E-05	1
1.64	9.97E-05	-1.26E-05	8.70E-05	0.000211076	9.28E-05	0.00030388	-3.59E-17	-1.92E-17	-5.51E-17	0.000335714	0.000160457	0.000496172	0.00030118	0.00017985	0.00048103	0.00019865	0.000136718	0.000335368	0.000104052	4.00E-05	0.00014402	-2.69E-05	6.41E-06	-2.05E-05	-2.89E-05	-3.65E-06	-3.26E-05	3.18E-05	5.52E-06	3.73E-05	-3.43E-05	-1.68E-05	-5.11E-05	-5.62E-05	-3.26E-05	-8.88E-05	4.83E-05	3.86E-05	8.69E-05	-5.60E-18	-4.24E-19	-6.02E-18	3.91E-05	3.02E-05	6.92E-05	0.000116423	5.73E-05	0.000173689	7.50E-05	3.03E-05	0.00010534	7.05E-06	7.44E-06	1.45E-05	-2.02E-05	6.42E-06	-1.38E-05	6.39E-06	1.09E-05	1.73E-05	7.72E-06	1.19E-05	1.97E-05	8.77E-06	1.61E-05	2.49E-05	1.24E-05	-3.13E-06	9.24E-06	4.62E-05	2.98E-05	7.60E-05	-8.98E-18	-6.75E-18	-1.57E-17	1.56E-05	1.17E-05	2.73E-05	5.55E-05	2.89E-05	8.44E-05	5.84E-05	2.56E-05	8.40E-05	1.99E-05	1.06E-05	3.05E-05	1.58E-05	2.23E-06	1.81E-05	2.45E-05	3.49E-06	2.80E-05	3.33E-05	5.13E-06	3.84E-05	2.81E-05	-1.34E-06	2.68E-05	-2.80E-05	-7.71E-06	-3.57E-05	5.42E-05	1.98E-05	7.40E-05	2.63E-17	-6.86E-18	1.95E-17	1.36E-05	2.39E-05	3.74E-05	5.21E-05	2.02E-05	7.23E-05	6.02E-05	1.11E-05	7.13E-05	3.37E-05	3.41E-06	3.71E-05	2.76E-05	-5.29E-07	2.71E-05	3.07E-05	2.02E-06	3.27E-05	3.27E-05	3.96E-06	3.66E-05	2.73E-05	1.78E-05	4.51E-05	1
