time	2HRF HbO_1_1	2HRF HbR_1_1	2HRF HbT_1_1	2HRF HbO_1_2	2HRF HbR_1_2	2HRF HbT_1_2	2HRF HbO_2_1	2HRF HbR_2_1	2HRF HbT_2_1	2HRF HbO_3_1	2HRF HbR_3_1	2HRF HbT_3_1	2HRF HbO_3_2	2HRF HbR_3_2	2HRF HbT_3_2	2HRF HbO_3_4	2HRF HbR_3_4	2HRF HbT_3_4	2HRF HbO_4_2	2HRF HbR_4_2	2HRF HbT_4_2	2HRF HbO_4_3	2HRF HbR_4_3	2HRF HbT_4_3	2HRF HbO_4_4	2HRF HbR_4_4	2HRF HbT_4_4	2HRF HbO_5_3	2HRF HbR_5_3	2HRF HbT_5_3	2HRF HbO_5_4	2HRF HbR_5_4	2HRF HbT_5_4	2HRF HbO_6_5	2HRF HbR_6_5	2HRF HbT_6_5	2HRF HbO_6_6	2HRF HbR_6_6	2HRF HbT_6_6	2HRF HbO_7_5	2HRF HbR_7_5	2HRF HbT_7_5	2HRF HbO_8_5	2HRF HbR_8_5	2HRF HbT_8_5	2HRF HbO_8_6	2HRF HbR_8_6	2HRF HbT_8_6	2HRF HbO_8_7	2HRF HbR_8_7	2HRF HbT_8_7	2HRF HbO_9_6	2HRF HbR_9_6	2HRF HbT_9_6	2HRF HbO_9_7	2HRF HbR_9_7	2HRF HbT_9_7	2HRF HbO_9_8	2HRF HbR_9_8	2HRF HbT_9_8	2HRF HbO_10_7	2HRF HbR_10_7	2HRF HbT_10_7	2HRF HbO_10_8	2HRF HbR_10_8	2HRF HbT_10_8	3HRF HbO_1_1	3HRF HbR_1_1	3HRF HbT_1_1	3HRF HbO_1_2	3HRF HbR_1_2	3HRF HbT_1_2	3HRF HbO_2_1	3HRF HbR_2_1	3HRF HbT_2_1	3HRF HbO_3_1	3HRF HbR_3_1	3HRF HbT_3_1	3HRF HbO_3_2	3HRF HbR_3_2	3HRF HbT_3_2	3HRF HbO_3_4	3HRF HbR_3_4	3HRF HbT_3_4	3HRF HbO_4_2	3HRF HbR_4_2	3HRF HbT_4_2	3HRF HbO_4_3	3HRF HbR_4_3	3HRF HbT_4_3	3HRF HbO_4_4	3HRF HbR_4_4	3HRF HbT_4_4	3HRF HbO_5_3	3HRF HbR_5_3	3HRF HbT_5_3	3HRF HbO_5_4	3HRF HbR_5_4	3HRF HbT_5_4	3HRF HbO_6_5	3HRF HbR_6_5	3HRF HbT_6_5	3HRF HbO_6_6	3HRF HbR_6_6	3HRF HbT_6_6	3HRF HbO_7_5	3HRF HbR_7_5	3HRF HbT_7_5	3HRF HbO_8_5	3HRF HbR_8_5	3HRF HbT_8_5	3HRF HbO_8_6	3HRF HbR_8_6	3HRF HbT_8_6	3HRF HbO_8_7	3HRF HbR_8_7	3HRF HbT_8_7	3HRF HbO_9_6	3HRF HbR_9_6	3HRF HbT_9_6	3HRF HbO_9_7	3HRF HbR_9_7	3HRF HbT_9_7	3HRF HbO_9_8	3HRF HbR_9_8	3HRF HbT_9_8	3HRF HbO_10_7	3HRF HbR_10_7	3HRF HbT_10_7	3HRF HbO_10_8	3HRF HbR_10_8	3HRF HbT_10_8	status
-2	-1.65E-05	0.00012192	0.000105458	-2.22E-06	8.40E-05	8.17E-05	-2.64E-17	2.07E-17	-5.78E-18	7.96E-05	-3.42E-05	4.54E-05	0.000187292	-0.000188745	-1.45E-06	0.000144177	-0.00011856	2.56E-05	2.75E-05	2.00E-05	4.75E-05	4.05E-05	1.53E-05	5.58E-05	-1.71E-05	7.86E-05	6.15E-05	4.38E-06	-1.56E-05	-1.12E-05	-1.92E-05	-7.40E-05	-9.32E-05	9.74E-05	-6.19E-05	3.55E-05	0.000110281	-5.62E-05	5.41E-05	-2.68E-17	-3.33E-17	-6.01E-17	-1.28E-05	-2.76E-05	-4.03E-05	-0.000196722	1.02E-05	-0.000186488	-0.000138403	-0.000121811	-0.000260214	6.51E-05	-4.04E-08	6.51E-05	6.36E-05	-4.69E-05	1.67E-05	0.000123019	-8.87E-05	3.43E-05	3.98E-05	1.37E-05	5.35E-05	-3.49E-05	7.94E-05	4.45E-05	-1.52E-05	-5.45E-06	-2.06E-05	7.61E-06	-4.45E-05	-3.69E-05	-5.88E-18	-8.59E-19	-6.74E-18	-0.000103882	3.85E-05	-6.54E-05	-0.000305321	0.000255004	-5.03E-05	-0.000164228	0.000125403	-3.88E-05	-3.07E-05	-2.45E-05	-5.52E-05	2.61E-05	-7.98E-05	-5.37E-05	3.23E-05	-5.40E-05	-2.17E-05	-1.15E-05	5.58E-05	4.43E-05	-4.33E-05	0.000208286	0.000164963	-9.91E-05	0.000106876	7.75E-06	-0.00012775	9.34E-05	-3.43E-05	8.66E-19	2.82E-20	8.94E-19	9.58E-06	6.24E-05	7.20E-05	0.000118832	8.95E-05	0.000208325	6.08E-05	0.000238676	0.000299462	-0.000153931	0.000129963	-2.40E-05	-0.000218231	0.000180418	-3.78E-05	-0.000151949	0.00015141	-5.39E-07	-3.16E-05	-2.03E-05	-5.19E-05	-9.47E-06	-4.49E-05	-5.43E-05	1
-1.96	-1.47E-05	0.000115672	0.000100957	3.47E-07	7.99E-05	8.02E-05	-2.63E-17	2.07E-17	-5.59E-18	7.04E-05	-3.19E-05	3.85E-05	0.000168703	-0.000169762	-1.06E-06	0.000130677	-0.000109586	2.11E-05	2.04E-05	1.70E-05	3.73E-05	4.03E-05	1.31E-05	5.35E-05	-1.55E-05	7.20E-05	5.64E-05	4.86E-06	-1.57E-05	-1.08E-05	-1.18E-05	-7.64E-05	-8.82E-05	8.58E-05	-5.29E-05	3.28E-05	9.82E-05	-4.81E-05	5.02E-05	-2.68E-17	-3.37E-17	-6.05E-17	-1.05E-05	-2.69E-05	-3.74E-05	-0.000182727	-7.35E-07	-0.000183462	-0.000124551	-0.000128493	-0.000253044	4.80E-05	9.81E-06	5.78E-05	2.91E-05	-1.28E-05	1.63E-05	0.000103616	-7.44E-05	2.92E-05	3.39E-05	8.82E-06	4.27E-05	-2.96E-05	6.87E-05	3.91E-05	-2.09E-05	-3.58E-06	-2.45E-05	5.30E-06	-4.68E-05	-4.15E-05	-5.79E-18	-1.07E-18	-6.86E-18	-9.41E-05	3.72E-05	-5.70E-05	-0.000281293	0.000233641	-4.77E-05	-0.000151655	0.000118533	-3.31E-05	-2.34E-05	-2.16E-05	-4.51E-05	2.39E-05	-7.91E-05	-5.53E-05	2.59E-05	-4.90E-05	-2.31E-05	-1.35E-05	5.59E-05	4.24E-05	-5.34E-05	0.000212524	0.000159159	-8.58E-05	9.44E-05	8.66E-06	-0.000112577	8.27E-05	-2.99E-05	8.89E-19	-1.43E-19	7.46E-19	1.06E-05	5.97E-05	7.03E-05	0.000107482	9.48E-05	0.000202329	5.95E-05	0.000230344	0.000289855	-0.000134426	0.000119481	-1.49E-05	-0.000183382	0.00016717	-1.62E-05	-0.000134317	0.000140008	5.69E-06	-2.63E-05	-1.62E-05	-4.26E-05	-1.45E-05	-3.90E-05	-5.35E-05	1
-1.92	-1.30E-05	0.000109351	9.64E-05	2.84E-06	7.57E-05	7.86E-05	-2.60E-17	2.06E-17	-5.35E-18	6.13E-05	-2.96E-05	3.18E-05	0.000150305	-0.000150954	-6.49E-07	0.000117307	-0.000100625	1.67E-05	1.34E-05	1.40E-05	2.74E-05	4.01E-05	1.10E-05	5.10E-05	-1.39E-05	6.53E-05	5.14E-05	5.33E-06	-1.58E-05	-1.04E-05	-4.51E-06	-7.86E-05	-8.31E-05	7.43E-05	-4.41E-05	3.01E-05	8.64E-05	-4.01E-05	4.63E-05	-2.67E-17	-3.40E-17	-6.07E-17	-8.33E-06	-2.62E-05	-3.45E-05	-0.000168662	-1.14E-05	-0.00018006	-0.000110725	-0.000134716	-0.000245441	3.14E-05	1.93E-05	5.07E-05	-4.38E-06	2.03E-05	1.59E-05	8.46E-05	-6.04E-05	2.42E-05	2.81E-05	4.07E-06	3.22E-05	-2.44E-05	5.82E-05	3.38E-05	-2.64E-05	-1.78E-06	-2.81E-05	3.08E-06	-4.89E-05	-4.58E-05	-5.69E-18	-1.26E-18	-6.95E-18	-8.45E-05	3.58E-05	-4.87E-05	-0.000257374	0.000212438	-4.49E-05	-0.000139139	0.000111629	-2.75E-05	-1.63E-05	-1.88E-05	-3.51E-05	2.16E-05	-7.83E-05	-5.67E-05	1.97E-05	-4.41E-05	-2.44E-05	-1.53E-05	5.58E-05	4.05E-05	-6.29E-05	0.000216105	0.000153173	-7.27E-05	8.22E-05	9.53E-06	-9.76E-05	7.21E-05	-2.55E-05	9.07E-19	-3.05E-19	6.02E-19	1.15E-05	5.70E-05	6.85E-05	9.63E-05	9.98E-05	0.000196059	5.82E-05	0.000221717	0.000279916	-0.00011527	0.000109099	-6.17E-06	-0.000149289	0.000154013	4.72E-06	-0.00011698	0.0001287	1.17E-05	-2.11E-05	-1.23E-05	-3.34E-05	-1.93E-05	-3.33E-05	-5.26E-05	1
-1.88	-1.13E-05	0.000102969	9.17E-05	5.25E-06	7.15E-05	7.68E-05	-2.55E-17	2.05E-17	-5.06E-18	5.24E-05	-2.72E-05	2.52E-05	0.000132164	-0.000132387	-2.23E-07	0.000104115	-9.17E-05	1.24E-05	6.67E-06	1.11E-05	1.77E-05	3.97E-05	8.83E-06	4.86E-05	-1.23E-05	5.87E-05	4.63E-05	5.78E-06	-1.58E-05	-1.00E-05	2.53E-06	-8.05E-05	-7.79E-05	6.31E-05	-3.56E-05	2.75E-05	7.47E-05	-3.23E-05	4.24E-05	-2.65E-17	-3.42E-17	-6.07E-17	-6.14E-06	-2.55E-05	-3.16E-05	-0.000154567	-2.17E-05	-0.000176266	-9.70E-05	-0.000140426	-0.000237397	1.53E-05	2.84E-05	4.37E-05	-3.66E-05	5.21E-05	1.55E-05	6.61E-05	-4.68E-05	1.93E-05	2.25E-05	-5.11E-07	2.20E-05	-1.93E-05	4.80E-05	2.86E-05	-3.16E-05	-4.61E-08	-3.16E-05	9.44E-07	-5.09E-05	-4.99E-05	-5.57E-18	-1.44E-18	-7.01E-18	-7.50E-05	3.45E-05	-4.05E-05	-0.000233641	0.000191468	-4.22E-05	-0.000126719	0.000104706	-2.20E-05	-9.46E-06	-1.60E-05	-2.55E-05	1.94E-05	-7.74E-05	-5.80E-05	1.36E-05	-3.93E-05	-2.56E-05	-1.71E-05	5.56E-05	3.85E-05	-7.20E-05	0.000218976	0.000147009	-5.99E-05	7.02E-05	1.04E-05	-8.30E-05	6.17E-05	-2.13E-05	9.21E-19	-4.57E-19	4.64E-19	1.24E-05	5.42E-05	6.65E-05	8.53E-05	0.000104244	0.000189516	5.69E-05	0.000212797	0.000269649	-9.65E-05	9.89E-05	2.31E-06	-0.000116102	0.000140987	2.49E-05	-0.000100011	0.000117524	1.75E-05	-1.61E-05	-8.48E-06	-2.45E-05	-2.39E-05	-2.77E-05	-5.16E-05	1
-1.84	-9.63E-06	9.65E-05	8.69E-05	7.55E-06	6.73E-05	7.48E-05	-2.50E-17	2.02E-17	-4.71E-18	4.38E-05	-2.49E-05	1.88E-05	0.000114349	-0.000114131	2.18E-07	9.12E-05	-8.29E-05	8.30E-06	2.15E-07	8.20E-06	8.42E-06	3.93E-05	6.71E-06	4.60E-05	-1.07E-05	5.21E-05	4.14E-05	6.22E-06	-1.58E-05	-9.60E-06	9.31E-06	-8.20E-05	-7.27E-05	5.21E-05	-2.72E-05	2.49E-05	6.33E-05	-2.47E-05	3.86E-05	-2.62E-17	-3.42E-17	-6.04E-17	-3.98E-06	-2.48E-05	-2.88E-05	-0.000140481	-3.16E-05	-0.000172066	-8.33E-05	-0.000145573	-0.000228908	-9.65E-08	3.70E-05	3.69E-05	-6.73E-05	8.24E-05	1.51E-05	4.82E-05	-3.36E-05	1.46E-05	1.71E-05	-4.91E-06	1.22E-05	-1.44E-05	3.80E-05	2.36E-05	-3.64E-05	1.60E-06	-3.48E-05	-1.09E-06	-5.26E-05	-5.37E-05	-5.43E-18	-1.60E-18	-7.03E-18	-6.56E-05	3.30E-05	-3.26E-05	-0.000210172	0.000170804	-3.94E-05	-0.000114438	9.78E-05	-1.67E-05	-2.81E-06	-1.33E-05	-1.61E-05	1.72E-05	-7.62E-05	-5.90E-05	7.76E-06	-3.45E-05	-2.67E-05	-1.87E-05	5.52E-05	3.65E-05	-8.04E-05	0.000221079	0.000140673	-4.74E-05	5.86E-05	1.12E-05	-6.87E-05	5.16E-05	-1.71E-05	9.29E-19	-5.99E-19	3.31E-19	1.32E-05	5.13E-05	6.45E-05	7.45E-05	0.000108201	0.000182699	5.55E-05	0.000203591	0.00025906	-7.83E-05	8.88E-05	1.05E-05	-8.40E-05	0.000128137	4.42E-05	-8.35E-05	0.000106517	2.30E-05	-1.11E-05	-4.78E-06	-1.59E-05	-2.82E-05	-2.23E-05	-5.05E-05	1
-1.8	-8.01E-06	9.01E-05	8.21E-05	9.74E-06	6.30E-05	7.27E-05	-2.42E-17	1.99E-17	-4.31E-18	3.53E-05	-2.26E-05	1.27E-05	9.69E-05	-9.63E-05	6.73E-07	7.85E-05	-7.41E-05	4.36E-06	-5.94E-06	5.43E-06	-5.10E-07	3.88E-05	4.63E-06	4.35E-05	-9.11E-06	4.56E-05	3.65E-05	6.64E-06	-1.58E-05	-9.15E-06	1.58E-05	-8.33E-05	-6.75E-05	4.15E-05	-1.91E-05	2.24E-05	5.22E-05	-1.74E-05	3.49E-05	-2.57E-17	-3.41E-17	-5.98E-17	-1.88E-06	-2.40E-05	-2.59E-05	-0.000126446	-4.10E-05	-0.000167448	-6.99E-05	-0.000150104	-0.000219972	-1.48E-05	4.51E-05	3.03E-05	-9.64E-05	0.000111107	1.47E-05	3.09E-05	-2.09E-05	1.00E-05	1.19E-05	-9.11E-06	2.78E-06	-9.57E-06	2.82E-05	1.87E-05	-4.10E-05	3.16E-06	-3.78E-05	-3.02E-06	-5.41E-05	-5.71E-05	-5.28E-18	-1.74E-18	-7.02E-18	-5.64E-05	3.16E-05	-2.49E-05	-0.000187047	0.000150519	-3.65E-05	-0.000102335	9.09E-05	-1.15E-05	3.55E-06	-1.07E-05	-7.13E-06	1.51E-05	-7.48E-05	-5.98E-05	2.12E-06	-2.98E-05	-2.77E-05	-2.02E-05	5.46E-05	3.45E-05	-8.82E-05	0.000222364	0.00013417	-3.53E-05	4.72E-05	1.19E-05	-5.49E-05	4.18E-05	-1.30E-05	9.33E-19	-7.29E-19	2.04E-19	1.39E-05	4.84E-05	6.23E-05	6.40E-05	0.00011161	0.000175607	5.40E-05	0.000194108	0.000248155	-6.07E-05	7.89E-05	1.82E-05	-5.30E-05	0.000115503	6.25E-05	-6.74E-05	9.57E-05	2.83E-05	-6.42E-06	-1.24E-06	-7.67E-06	-3.23E-05	-1.71E-05	-4.93E-05	1
-1.76	-6.44E-06	8.36E-05	7.72E-05	1.18E-05	5.86E-05	7.04E-05	-2.34E-17	1.95E-17	-3.86E-18	2.72E-05	-2.03E-05	6.82E-06	8.00E-05	-7.88E-05	1.14E-06	6.61E-05	-6.55E-05	6.25E-07	-1.18E-05	2.76E-06	-9.01E-06	3.82E-05	2.59E-06	4.08E-05	-7.52E-06	3.91E-05	3.16E-05	7.04E-06	-1.57E-05	-8.67E-06	2.20E-05	-8.42E-05	-6.22E-05	3.12E-05	-1.14E-05	1.99E-05	4.15E-05	-1.03E-05	3.12E-05	-2.52E-17	-3.38E-17	-5.90E-17	1.80E-07	-2.32E-05	-2.30E-05	-0.000112505	-4.99E-05	-0.0001624	-5.66E-05	-0.00015397	-0.000210589	-2.87E-05	5.26E-05	2.39E-05	-0.000123723	0.000138016	1.43E-05	1.44E-05	-8.71E-06	5.67E-06	6.88E-06	-1.31E-05	-6.20E-06	-4.95E-06	1.89E-05	1.39E-05	-4.51E-05	4.61E-06	-4.05E-05	-4.82E-06	-5.53E-05	-6.02E-05	-5.11E-18	-1.86E-18	-6.97E-18	-4.75E-05	3.01E-05	-1.74E-05	-0.000164344	0.000130686	-3.37E-05	-9.05E-05	8.40E-05	-6.45E-06	9.61E-06	-8.14E-06	1.47E-06	1.30E-05	-7.33E-05	-6.03E-05	-3.26E-06	-2.53E-05	-2.86E-05	-2.15E-05	5.39E-05	3.24E-05	-9.53E-05	0.000222779	0.000127508	-2.37E-05	3.63E-05	1.26E-05	-4.15E-05	3.24E-05	-9.13E-06	9.31E-19	-8.47E-19	8.42E-20	1.46E-05	4.55E-05	6.01E-05	5.38E-05	0.00011443	0.000168244	5.26E-05	0.000184355	0.000236941	-4.37E-05	6.93E-05	2.56E-05	-2.35E-05	0.000103129	7.97E-05	-5.20E-05	8.52E-05	3.32E-05	-1.91E-06	2.13E-06	2.27E-07	-3.60E-05	-1.20E-05	-4.80E-05	1
-1.72	-4.92E-06	7.71E-05	7.22E-05	1.37E-05	5.43E-05	6.80E-05	-2.23E-17	1.90E-17	-3.35E-18	1.93E-05	-1.81E-05	1.24E-06	6.35E-05	-6.19E-05	1.61E-06	5.41E-05	-5.70E-05	-2.90E-06	-1.72E-05	1.86E-07	-1.70E-05	3.76E-05	6.03E-07	3.82E-05	-5.94E-06	3.29E-05	2.69E-05	7.41E-06	-1.56E-05	-8.17E-06	2.78E-05	-8.48E-05	-5.70E-05	2.14E-05	-3.94E-06	1.74E-05	3.11E-05	-3.54E-06	2.76E-05	-2.44E-17	-3.34E-17	-5.78E-17	2.17E-06	-2.24E-05	-2.02E-05	-9.87E-05	-5.82E-05	-0.000156915	-4.36E-05	-0.000157121	-0.000200761	-4.17E-05	5.95E-05	1.77E-05	-0.0001491	0.000162976	1.39E-05	-1.34E-06	2.87E-06	1.54E-06	2.10E-06	-1.68E-05	-1.47E-05	-5.23E-07	9.85E-06	9.33E-06	-4.89E-05	5.96E-06	-4.29E-05	-6.49E-06	-5.63E-05	-6.28E-05	-4.92E-18	-1.96E-18	-6.89E-18	-3.88E-05	2.85E-05	-1.03E-05	-0.000142143	0.000111377	-3.08E-05	-7.88E-05	7.72E-05	-1.64E-06	1.53E-05	-5.70E-06	9.63E-06	1.09E-05	-7.16E-05	-6.07E-05	-8.37E-06	-2.09E-05	-2.93E-05	-2.26E-05	5.30E-05	3.03E-05	-0.000101587	0.00022228	0.000120693	-1.26E-05	2.58E-05	1.32E-05	-2.87E-05	2.33E-05	-5.38E-06	9.24E-19	-9.52E-19	-2.80E-20	1.52E-05	4.25E-05	5.77E-05	4.40E-05	0.000116624	0.000160611	5.11E-05	0.000174345	0.000225428	-2.75E-05	5.99E-05	3.25E-05	4.60E-06	9.11E-05	9.57E-05	-3.72E-05	7.49E-05	3.77E-05	2.38E-06	5.32E-06	7.71E-06	-3.95E-05	-7.19E-06	-4.66E-05	1
-1.68	-3.46E-06	7.07E-05	6.72E-05	1.55E-05	4.99E-05	6.54E-05	-2.12E-17	1.84E-17	-2.79E-18	1.18E-05	-1.58E-05	-4.04E-06	4.77E-05	-4.56E-05	2.10E-06	4.25E-05	-4.87E-05	-6.19E-06	-2.23E-05	-2.26E-06	-2.46E-05	3.68E-05	-1.32E-06	3.54E-05	-4.39E-06	2.67E-05	2.23E-05	7.76E-06	-1.54E-05	-7.65E-06	3.32E-05	-8.49E-05	-5.17E-05	1.20E-05	3.11E-06	1.51E-05	2.12E-05	2.87E-06	2.41E-05	-2.36E-17	-3.28E-17	-5.64E-17	4.09E-06	-2.15E-05	-1.74E-05	-8.51E-05	-6.59E-05	-0.000150985	-3.10E-05	-0.000159514	-0.000190494	-5.38E-05	6.57E-05	1.19E-05	-0.000172383	0.000185835	1.35E-05	-1.62E-05	1.38E-05	-2.36E-06	-2.40E-06	-2.02E-05	-2.26E-05	3.68E-06	1.27E-06	4.95E-06	-5.22E-05	7.19E-06	-4.50E-05	-8.02E-06	-5.71E-05	-6.51E-05	-4.72E-18	-2.04E-18	-6.76E-18	-3.05E-05	2.70E-05	-3.50E-06	-0.00012052	9.27E-05	-2.79E-05	-6.75E-05	7.04E-05	2.93E-06	2.07E-05	-3.37E-06	1.73E-05	8.90E-06	-6.96E-05	-6.07E-05	-1.32E-05	-1.67E-05	-2.98E-05	-2.36E-05	5.18E-05	2.82E-05	-0.000107089	0.000220823	0.000113733	-2.04E-06	1.58E-05	1.37E-05	-1.64E-05	1.46E-05	-1.80E-06	9.11E-19	-1.04E-18	-1.32E-19	1.57E-05	3.95E-05	5.52E-05	3.46E-05	0.000118159	0.000152714	4.95E-05	0.000164089	0.000213625	-1.20E-05	5.09E-05	3.89E-05	3.11E-05	7.93E-05	0.000110376	-2.31E-05	6.49E-05	4.19E-05	6.43E-06	8.31E-06	1.47E-05	-4.25E-05	-2.61E-06	-4.52E-05	1
-1.64	-2.07E-06	6.42E-05	6.21E-05	1.71E-05	4.55E-05	6.26E-05	-1.99E-17	1.77E-17	-2.18E-18	4.68E-06	-1.37E-05	-8.97E-06	3.25E-05	-2.99E-05	2.58E-06	3.14E-05	-4.06E-05	-9.23E-06	-2.69E-05	-4.58E-06	-3.15E-05	3.59E-05	-3.18E-06	3.27E-05	-2.87E-06	2.07E-05	1.78E-05	8.08E-06	-1.52E-05	-7.11E-06	3.82E-05	-8.47E-05	-4.65E-05	3.10E-06	9.74E-06	1.28E-05	1.18E-05	8.91E-06	2.07E-05	-2.26E-17	-3.21E-17	-5.47E-17	5.93E-06	-2.07E-05	-1.47E-05	-7.17E-05	-7.29E-05	-0.000144606	-1.87E-05	-0.000161104	-0.000179797	-6.49E-05	7.12E-05	6.30E-06	-0.000193428	0.00020645	1.30E-05	-3.00E-05	2.40E-05	-6.01E-06	-6.63E-06	-2.34E-05	-3.00E-05	7.65E-06	-6.86E-06	7.93E-07	-5.51E-05	8.29E-06	-4.68E-05	-9.40E-06	-5.75E-05	-6.69E-05	-4.50E-18	-2.10E-18	-6.60E-18	-2.24E-05	2.53E-05	2.94E-06	-9.96E-05	7.46E-05	-2.49E-05	-5.65E-05	6.38E-05	7.25E-06	2.56E-05	-1.16E-06	2.45E-05	6.97E-06	-6.74E-05	-6.05E-05	-1.76E-05	-1.26E-05	-3.02E-05	-2.44E-05	5.05E-05	2.61E-05	-0.00011173	0.00021837	0.000106639	7.91E-06	6.31E-06	1.42E-05	-4.80E-06	6.40E-06	1.60E-06	8.93E-19	-1.12E-18	-2.28E-19	1.61E-05	3.65E-05	5.26E-05	2.56E-05	0.000119003	0.000144558	4.79E-05	0.000153601	0.000201544	2.52E-06	4.22E-05	4.47E-05	5.58E-05	6.80E-05	0.000123714	-9.71E-06	5.53E-05	4.56E-05	1.02E-05	1.11E-05	2.13E-05	-4.53E-05	1.70E-06	-4.36E-05	1
-1.6	-7.57E-07	5.78E-05	5.71E-05	1.85E-05	4.11E-05	5.96E-05	-1.84E-17	1.69E-17	-1.53E-18	-2.04E-06	-1.15E-05	-1.35E-05	1.80E-05	-1.50E-05	3.07E-06	2.08E-05	-3.28E-05	-1.20E-05	-3.11E-05	-6.76E-06	-3.79E-05	3.49E-05	-4.95E-06	2.99E-05	-1.39E-06	1.49E-05	1.35E-05	8.36E-06	-1.49E-05	-6.55E-06	4.27E-05	-8.40E-05	-4.13E-05	-5.26E-06	1.59E-05	1.07E-05	2.93E-06	1.46E-05	1.75E-05	-2.15E-17	-3.12E-17	-5.27E-17	7.68E-06	-1.97E-05	-1.21E-05	-5.86E-05	-7.92E-05	-0.000137779	-6.83E-06	-0.000161851	-0.00016868	-7.49E-05	7.60E-05	1.07E-06	-0.000212107	0.00022469	1.26E-05	-4.29E-05	3.35E-05	-9.38E-06	-1.05E-05	-2.62E-05	-3.68E-05	1.14E-05	-1.45E-05	-3.12E-06	-5.74E-05	9.26E-06	-4.82E-05	-1.06E-05	-5.76E-05	-6.83E-05	-4.26E-18	-2.13E-18	-6.39E-18	-1.47E-05	2.37E-05	8.99E-06	-7.93E-05	5.73E-05	-2.20E-05	-4.59E-05	5.72E-05	1.13E-05	3.02E-05	9.18E-07	3.11E-05	5.12E-06	-6.50E-05	-5.99E-05	-2.17E-05	-8.70E-06	-3.04E-05	-2.50E-05	4.90E-05	2.40E-05	-0.000115468	0.000214888	9.94E-05	1.72E-05	-2.60E-06	1.46E-05	6.11E-06	-1.32E-06	4.79E-06	8.68E-19	-1.18E-18	-3.14E-19	1.64E-05	3.35E-05	4.99E-05	1.70E-05	0.000119129	0.00013615	4.63E-05	0.000142898	0.000189198	1.61E-05	3.39E-05	5.00E-05	7.86E-05	5.70E-05	0.000135589	2.82E-06	4.61E-05	4.89E-05	1.37E-05	1.36E-05	2.73E-05	-4.76E-05	5.73E-06	-4.19E-05	1
-1.56	4.82E-07	5.15E-05	5.20E-05	1.98E-05	3.67E-05	5.65E-05	-1.68E-17	1.60E-17	-8.32E-19	-8.33E-06	-9.41E-06	-1.77E-05	4.33E-06	-7.79E-07	3.56E-06	1.07E-05	-2.52E-05	-1.45E-05	-3.48E-05	-8.79E-06	-4.36E-05	3.37E-05	-6.64E-06	2.71E-05	4.52E-08	9.31E-06	9.35E-06	8.60E-06	-1.46E-05	-5.97E-06	4.68E-05	-8.29E-05	-3.61E-05	-1.30E-05	2.16E-05	8.60E-06	-5.42E-06	1.98E-05	1.44E-05	-2.02E-17	-3.01E-17	-5.03E-17	9.32E-06	-1.88E-05	-9.47E-06	-4.58E-05	-8.47E-05	-0.000130505	4.56E-06	-0.00016172	-0.000157159	-8.38E-05	8.00E-05	-3.82E-06	-0.0002283	0.000240434	1.21E-05	-5.46E-05	4.22E-05	-1.25E-05	-1.41E-05	-2.87E-05	-4.29E-05	1.48E-05	-2.16E-05	-6.78E-06	-5.93E-05	1.01E-05	-4.92E-05	-1.17E-05	-5.75E-05	-6.91E-05	-4.01E-18	-2.14E-18	-6.15E-18	-7.41E-06	2.20E-05	1.46E-05	-5.99E-05	4.07E-05	-1.91E-05	-3.57E-05	5.08E-05	1.51E-05	3.42E-05	2.86E-06	3.71E-05	3.35E-06	-6.24E-05	-5.91E-05	-2.55E-05	-5.01E-06	-3.05E-05	-2.54E-05	4.73E-05	2.19E-05	-0.000118265	0.000210351	9.21E-05	2.58E-05	-1.09E-05	1.49E-05	1.63E-05	-8.52E-06	7.76E-06	8.38E-19	-1.23E-18	-3.91E-19	1.66E-05	3.04E-05	4.71E-05	8.99E-06	0.000118513	0.000127499	4.46E-05	0.000131996	0.000176601	2.87E-05	2.59E-05	5.47E-05	9.94E-05	4.65E-05	0.000145922	1.45E-05	3.72E-05	5.17E-05	1.69E-05	1.59E-05	3.28E-05	-4.95E-05	9.45E-06	-4.00E-05	1
-1.52	1.64E-06	4.52E-05	4.69E-05	2.08E-05	3.23E-05	5.32E-05	-1.51E-17	1.50E-17	-1.04E-19	-1.42E-05	-7.37E-06	-2.15E-05	-8.54E-06	1.26E-05	4.04E-06	1.22E-06	-1.79E-05	-1.67E-05	-3.81E-05	-1.06E-05	-4.87E-05	3.25E-05	-8.23E-06	2.43E-05	1.43E-06	3.95E-06	5.38E-06	8.80E-06	-1.42E-05	-5.37E-06	5.03E-05	-8.13E-05	-3.10E-05	-2.02E-05	2.69E-05	6.63E-06	-1.32E-05	2.45E-05	1.14E-05	-1.88E-17	-2.89E-17	-4.77E-17	1.09E-05	-1.78E-05	-6.97E-06	-3.33E-05	-8.95E-05	-0.000122788	1.54E-05	-0.000160678	-0.000145252	-9.15E-05	8.32E-05	-8.35E-06	-0.000241904	0.000253577	1.17E-05	-6.52E-05	5.00E-05	-1.53E-05	-1.74E-05	-3.09E-05	-4.83E-05	1.79E-05	-2.81E-05	-1.02E-05	-6.06E-05	1.08E-05	-4.99E-05	-1.25E-05	-5.70E-05	-6.95E-05	-3.74E-18	-2.12E-18	-5.86E-18	-5.23E-07	2.03E-05	1.98E-05	-4.13E-05	2.50E-05	-1.62E-05	-2.59E-05	4.45E-05	1.85E-05	3.78E-05	4.66E-06	4.25E-05	1.66E-06	-5.96E-05	-5.80E-05	-2.88E-05	-1.54E-06	-3.03E-05	-2.56E-05	4.53E-05	1.97E-05	-0.000120087	0.000204738	8.47E-05	3.37E-05	-1.85E-05	1.52E-05	2.57E-05	-1.52E-05	1.05E-05	8.01E-19	-1.26E-18	-4.59E-19	1.68E-05	2.74E-05	4.41E-05	1.48E-06	0.000117137	0.000118614	4.29E-05	0.000120915	0.000163769	4.03E-05	1.84E-05	5.87E-05	0.000118158	3.65E-05	0.000154645	2.52E-05	2.88E-05	5.40E-05	1.97E-05	1.79E-05	3.77E-05	-5.10E-05	1.29E-05	-3.81E-05	1
-1.48	2.70E-06	3.91E-05	4.18E-05	2.17E-05	2.80E-05	4.97E-05	-1.33E-17	1.39E-17	6.53E-19	-1.95E-05	-5.39E-06	-2.49E-05	-2.05E-05	2.50E-05	4.51E-06	-7.65E-06	-1.10E-05	-1.86E-05	-4.08E-05	-1.23E-05	-5.31E-05	3.11E-05	-9.71E-06	2.14E-05	2.76E-06	-1.16E-06	1.60E-06	8.96E-06	-1.37E-05	-4.76E-06	5.34E-05	-7.93E-05	-2.60E-05	-2.68E-05	3.16E-05	4.77E-06	-2.03E-05	2.88E-05	8.53E-06	-1.73E-17	-2.75E-17	-4.48E-17	1.23E-05	-1.68E-05	-4.55E-06	-2.13E-05	-9.34E-05	-0.000114638	2.57E-05	-0.000158699	-0.00013298	-9.80E-05	8.55E-05	-1.25E-05	-0.000252828	0.000264028	1.12E-05	-7.47E-05	5.69E-05	-1.77E-05	-2.03E-05	-3.27E-05	-5.30E-05	2.08E-05	-3.41E-05	-1.33E-05	-6.15E-05	1.13E-05	-5.01E-05	-1.32E-05	-5.61E-05	-6.94E-05	-3.45E-18	-2.08E-18	-5.54E-18	5.92E-06	1.86E-05	2.45E-05	-2.36E-05	1.02E-05	-1.34E-05	-1.67E-05	3.83E-05	2.16E-05	4.09E-05	6.30E-06	4.72E-05	7.71E-08	-5.66E-05	-5.65E-05	-3.17E-05	1.70E-06	-3.00E-05	-2.56E-05	4.32E-05	1.76E-05	-0.000120908	0.000198033	7.71E-05	4.08E-05	-2.55E-05	1.53E-05	3.42E-05	-2.12E-05	1.30E-05	7.59E-19	-1.27E-18	-5.16E-19	1.67E-05	2.44E-05	4.11E-05	-5.48E-06	0.000114985	0.000109508	4.10E-05	0.000109676	0.000150718	5.07E-05	1.14E-05	6.21E-05	0.000134733	2.70E-05	0.000161699	3.50E-05	2.09E-05	5.59E-05	2.23E-05	1.97E-05	4.20E-05	-5.20E-05	1.59E-05	-3.61E-05	1
-1.44	3.68E-06	3.30E-05	3.67E-05	2.23E-05	2.37E-05	4.61E-05	-1.14E-17	1.28E-17	1.43E-18	-2.43E-05	-3.49E-06	-2.78E-05	-3.16E-05	3.66E-05	4.96E-06	-1.59E-05	-4.35E-06	-2.02E-05	-4.30E-05	-1.38E-05	-5.68E-05	2.97E-05	-1.11E-05	1.86E-05	4.03E-06	-6.00E-06	-1.97E-06	9.08E-06	-1.32E-05	-4.14E-06	5.58E-05	-7.69E-05	-2.10E-05	-3.27E-05	3.57E-05	3.03E-06	-2.68E-05	3.26E-05	5.84E-06	-1.57E-17	-2.59E-17	-4.15E-17	1.36E-05	-1.58E-05	-2.23E-06	-9.69E-06	-9.64E-05	-0.000106066	3.54E-05	-0.000155759	-0.000120369	-0.000103288	8.71E-05	-1.62E-05	-0.000261001	0.000271713	1.07E-05	-8.29E-05	6.30E-05	-1.99E-05	-2.28E-05	-3.41E-05	-5.69E-05	2.33E-05	-3.94E-05	-1.61E-05	-6.17E-05	1.17E-05	-5.00E-05	-1.38E-05	-5.50E-05	-6.87E-05	-3.15E-18	-2.02E-18	-5.18E-18	1.19E-05	1.69E-05	2.88E-05	-6.95E-06	-3.62E-06	-1.06E-05	-7.89E-06	3.23E-05	2.44E-05	4.35E-05	7.78E-06	5.13E-05	-1.41E-06	-5.33E-05	-5.47E-05	-3.42E-05	4.70E-06	-2.95E-05	-2.53E-05	4.08E-05	1.55E-05	-0.000120708	0.00019023	6.95E-05	4.71E-05	-3.18E-05	1.53E-05	4.19E-05	-2.67E-05	1.53E-05	7.11E-19	-1.27E-18	-5.64E-19	1.66E-05	2.13E-05	3.80E-05	-1.19E-05	0.000112049	0.000100193	3.92E-05	9.83E-05	0.000137467	6.01E-05	4.75E-06	6.48E-05	0.000149061	1.80E-05	0.000167032	4.38E-05	1.34E-05	5.72E-05	2.45E-05	2.12E-05	4.57E-05	-5.26E-05	1.86E-05	-3.39E-05	1
-1.4	4.56E-06	2.71E-05	3.16E-05	2.28E-05	1.95E-05	4.23E-05	-9.31E-18	1.15E-17	2.23E-18	-2.87E-05	-1.66E-06	-3.03E-05	-4.17E-05	4.71E-05	5.40E-06	-2.34E-05	1.92E-06	-2.15E-05	-4.47E-05	-1.52E-05	-5.98E-05	2.81E-05	-1.23E-05	1.58E-05	5.23E-06	-1.05E-05	-5.31E-06	9.14E-06	-1.26E-05	-3.50E-06	5.77E-05	-7.39E-05	-1.62E-05	-3.79E-05	3.93E-05	1.40E-06	-3.26E-05	3.59E-05	3.32E-06	-1.39E-17	-2.41E-17	-3.81E-17	1.47E-05	-1.47E-05	-1.89E-08	1.41E-06	-9.85E-05	-9.71E-05	4.44E-05	-0.000151842	-0.000107446	-0.00010727	8.77E-05	-1.96E-05	-0.000266368	0.000276573	1.02E-05	-8.98E-05	6.81E-05	-2.17E-05	-2.50E-05	-3.52E-05	-6.02E-05	2.55E-05	-4.40E-05	-1.86E-05	-6.14E-05	1.20E-05	-4.94E-05	-1.41E-05	-5.34E-05	-6.75E-05	-2.84E-18	-1.94E-18	-4.78E-18	1.74E-05	1.51E-05	3.25E-05	8.70E-06	-1.65E-05	-7.79E-06	3.53E-07	2.65E-05	2.68E-05	4.56E-05	9.10E-06	5.47E-05	-2.79E-06	-4.98E-05	-5.26E-05	-3.62E-05	7.45E-06	-2.88E-05	-2.49E-05	3.82E-05	1.34E-05	-0.000119474	0.000181329	6.19E-05	5.26E-05	-3.74E-05	1.53E-05	4.88E-05	-3.15E-05	1.72E-05	6.57E-19	-1.26E-18	-6.01E-19	1.64E-05	1.83E-05	3.47E-05	-1.76E-05	0.000108325	9.07E-05	3.72E-05	8.68E-05	0.000124034	6.82E-05	-1.38E-06	6.68E-05	0.000161083	9.52E-06	0.000170607	5.15E-05	6.39E-06	5.79E-05	2.63E-05	2.24E-05	4.87E-05	-5.27E-05	2.10E-05	-3.17E-05	1
-1.36	5.34E-06	2.13E-05	2.66E-05	2.30E-05	1.54E-05	3.83E-05	-7.19E-18	1.02E-17	3.03E-18	-3.24E-05	7.79E-08	-3.24E-05	-5.09E-05	5.67E-05	5.81E-06	-3.03E-05	7.80E-06	-2.25E-05	-4.58E-05	-1.63E-05	-6.21E-05	2.64E-05	-1.34E-05	1.29E-05	6.35E-06	-1.48E-05	-8.43E-06	9.16E-06	-1.20E-05	-2.86E-06	5.91E-05	-7.05E-05	-1.15E-05	-4.24E-05	4.23E-05	-1.11E-07	-3.78E-05	3.87E-05	9.53E-07	-1.21E-17	-2.22E-17	-3.43E-17	1.57E-05	-1.36E-05	2.08E-06	1.20E-05	-9.97E-05	-8.77E-05	5.27E-05	-0.000146936	-9.42E-05	-0.00010996	8.75E-05	-2.25E-05	-0.000268892	0.00027857	9.68E-06	-9.54E-05	7.22E-05	-2.32E-05	-2.68E-05	-3.59E-05	-6.26E-05	2.73E-05	-4.80E-05	-2.07E-05	-6.05E-05	1.21E-05	-4.85E-05	-1.42E-05	-5.16E-05	-6.58E-05	-2.52E-18	-1.83E-18	-4.34E-18	2.24E-05	1.33E-05	3.57E-05	2.33E-05	-2.83E-05	-5.07E-06	8.05E-06	2.08E-05	2.89E-05	4.71E-05	1.02E-05	5.74E-05	-4.05E-06	-4.61E-05	-5.02E-05	-3.78E-05	9.95E-06	-2.79E-05	-2.42E-05	3.55E-05	1.13E-05	-0.000117197	0.000171338	5.41E-05	5.73E-05	-4.22E-05	1.51E-05	5.47E-05	-3.57E-05	1.89E-05	5.98E-19	-1.23E-18	-6.28E-19	1.61E-05	1.53E-05	3.14E-05	-2.28E-05	0.000103814	8.10E-05	3.52E-05	7.52E-05	0.00011044	7.51E-05	-7.02E-06	6.81E-05	0.000170753	1.64E-06	0.000172394	5.82E-05	-9.38E-08	5.82E-05	2.78E-05	2.33E-05	5.11E-05	-5.23E-05	2.30E-05	-2.93E-05	1
-1.32	6.02E-06	1.56E-05	2.16E-05	2.29E-05	1.13E-05	3.43E-05	-5.00E-18	8.83E-18	3.83E-18	-3.57E-05	1.73E-06	-3.39E-05	-5.90E-05	6.52E-05	6.19E-06	-3.64E-05	1.33E-05	-2.32E-05	-4.64E-05	-1.72E-05	-6.36E-05	2.45E-05	-1.44E-05	1.01E-05	7.39E-06	-1.87E-05	-1.13E-05	9.12E-06	-1.13E-05	-2.20E-06	5.98E-05	-6.67E-05	-6.86E-06	-4.63E-05	4.48E-05	-1.50E-06	-4.22E-05	4.10E-05	-1.24E-06	-1.01E-17	-2.02E-17	-3.03E-17	1.66E-05	-1.25E-05	4.06E-06	2.20E-05	-1.00E-04	-7.80E-05	6.02E-05	-0.000141035	-8.08E-05	-0.00011135	8.64E-05	-2.50E-05	-0.000268557	0.000277685	9.13E-06	-9.97E-05	7.54E-05	-2.43E-05	-2.81E-05	-3.61E-05	-6.43E-05	2.88E-05	-5.14E-05	-2.26E-05	-5.91E-05	1.20E-05	-4.71E-05	-1.42E-05	-4.94E-05	-6.36E-05	-2.18E-18	-1.70E-18	-3.87E-18	2.68E-05	1.15E-05	3.84E-05	3.67E-05	-3.91E-05	-2.41E-06	1.52E-05	1.54E-05	3.06E-05	4.81E-05	1.12E-05	5.93E-05	-5.20E-06	-4.22E-05	-4.74E-05	-3.89E-05	1.22E-05	-2.67E-05	-2.33E-05	3.25E-05	9.19E-06	-0.00011388	0.000160272	4.64E-05	6.11E-05	-4.62E-05	1.49E-05	5.97E-05	-3.93E-05	2.04E-05	5.35E-19	-1.18E-18	-6.45E-19	1.56E-05	1.24E-05	2.80E-05	-2.74E-05	9.85E-05	7.12E-05	3.31E-05	6.36E-05	9.67E-05	8.08E-05	-1.22E-05	6.86E-05	0.000178046	-5.67E-06	0.000172378	6.39E-05	-6.07E-06	5.78E-05	2.89E-05	2.40E-05	5.28E-05	-5.15E-05	2.46E-05	-2.69E-05	1
-1.28	6.59E-06	1.01E-05	1.67E-05	2.27E-05	7.34E-06	3.01E-05	-2.75E-18	7.37E-18	4.62E-18	-3.83E-05	3.29E-06	-3.50E-05	-6.60E-05	7.26E-05	6.54E-06	-4.18E-05	1.83E-05	-2.35E-05	-4.64E-05	-1.79E-05	-6.43E-05	2.26E-05	-1.52E-05	7.37E-06	8.33E-06	-2.22E-05	-1.39E-05	9.02E-06	-1.06E-05	-1.55E-06	5.99E-05	-6.23E-05	-2.41E-06	-4.94E-05	4.66E-05	-2.77E-06	-4.59E-05	4.27E-05	-3.27E-06	-8.12E-18	-1.80E-17	-2.61E-17	1.72E-05	-1.13E-05	5.90E-06	3.13E-05	-9.93E-05	-6.79E-05	6.70E-05	-0.00013414	-6.72E-05	-0.00011144	8.44E-05	-2.70E-05	-0.000265366	0.00027392	8.55E-06	-0.000102693	7.76E-05	-2.51E-05	-2.91E-05	-3.60E-05	-6.52E-05	2.99E-05	-5.40E-05	-2.41E-05	-5.71E-05	1.18E-05	-4.53E-05	-1.40E-05	-4.68E-05	-6.08E-05	-1.83E-18	-1.55E-18	-3.38E-18	3.08E-05	9.71E-06	4.05E-05	4.90E-05	-4.88E-05	1.68E-07	2.17E-05	1.02E-05	3.19E-05	4.86E-05	1.20E-05	6.06E-05	-6.24E-06	-3.81E-05	-4.44E-05	-3.96E-05	1.41E-05	-2.54E-05	-2.22E-05	2.94E-05	7.14E-06	-0.00010953	0.000148155	3.86E-05	6.40E-05	-4.95E-05	1.45E-05	6.37E-05	-4.22E-05	2.15E-05	4.66E-19	-1.12E-18	-6.52E-19	1.50E-05	9.47E-06	2.45E-05	-3.13E-05	9.25E-05	6.12E-05	3.09E-05	5.20E-05	8.29E-05	8.53E-05	-1.68E-05	6.85E-05	0.000182948	-1.24E-05	0.000170556	6.85E-05	-1.15E-05	5.69E-05	2.96E-05	2.43E-05	5.39E-05	-5.02E-05	2.59E-05	-2.43E-05	1
-1.24	7.06E-06	4.80E-06	1.19E-05	2.22E-05	3.48E-06	2.57E-05	-4.76E-19	5.86E-18	5.38E-18	-4.04E-05	4.75E-06	-3.57E-05	-7.20E-05	7.89E-05	6.85E-06	-4.65E-05	2.30E-05	-2.35E-05	-4.59E-05	-1.84E-05	-6.43E-05	2.05E-05	-1.59E-05	4.64E-06	9.19E-06	-2.54E-05	-1.63E-05	8.87E-06	-9.76E-06	-8.93E-07	5.95E-05	-5.76E-05	1.89E-06	-5.18E-05	4.78E-05	-3.92E-06	-4.89E-05	4.38E-05	-5.12E-06	-6.03E-18	-1.57E-17	-2.17E-17	1.78E-05	-1.01E-05	7.62E-06	4.01E-05	-9.76E-05	-5.75E-05	7.29E-05	-0.000126258	-5.33E-05	-0.000110241	8.16E-05	-2.87E-05	-0.000259345	0.000267295	7.95E-06	-0.000104368	7.88E-05	-2.56E-05	-2.97E-05	-3.55E-05	-6.53E-05	3.07E-05	-5.59E-05	-2.53E-05	-5.46E-05	1.14E-05	-4.32E-05	-1.36E-05	-4.39E-05	-5.75E-05	-1.47E-18	-1.38E-18	-2.85E-18	3.42E-05	7.90E-06	4.21E-05	6.01E-05	-5.75E-05	2.66E-06	2.76E-05	5.14E-06	3.28E-05	4.85E-05	1.26E-05	6.11E-05	-7.15E-06	-3.38E-05	-4.10E-05	-3.98E-05	1.58E-05	-2.39E-05	-2.09E-05	2.60E-05	5.13E-06	-0.000104164	0.000135021	3.09E-05	6.61E-05	-5.21E-05	1.40E-05	6.68E-05	-4.44E-05	2.24E-05	3.94E-19	-1.04E-18	-6.49E-19	1.43E-05	6.60E-06	2.09E-05	-3.46E-05	8.57E-05	5.11E-05	2.86E-05	4.03E-05	6.89E-05	8.85E-05	-2.09E-05	6.76E-05	0.000185465	-1.85E-05	0.000166935	7.20E-05	-1.65E-05	5.55E-05	3.00E-05	2.43E-05	5.43E-05	-4.84E-05	2.67E-05	-2.16E-05	1
-1.2	7.43E-06	-3.30E-07	7.10E-06	2.16E-05	-2.79E-07	2.13E-05	1.81E-18	4.30E-18	6.12E-18	-4.20E-05	6.10E-06	-3.59E-05	-7.70E-05	8.41E-05	7.12E-06	-5.04E-05	2.72E-05	-2.33E-05	-4.48E-05	-1.87E-05	-6.35E-05	1.83E-05	-1.64E-05	1.95E-06	9.94E-06	-2.83E-05	-1.83E-05	8.65E-06	-8.89E-06	-2.40E-07	5.84E-05	-5.24E-05	6.01E-06	-5.34E-05	4.85E-05	-4.94E-06	-5.13E-05	4.45E-05	-6.80E-06	-3.90E-18	-1.32E-17	-1.71E-17	1.81E-05	-8.92E-06	9.19E-06	4.81E-05	-9.50E-05	-4.69E-05	7.80E-05	-0.000117402	-3.94E-05	-0.000107772	7.79E-05	-2.99E-05	-0.000250537	0.000257853	7.32E-06	-0.000104737	7.90E-05	-2.57E-05	-3.00E-05	-3.47E-05	-6.46E-05	3.11E-05	-5.72E-05	-2.61E-05	-5.15E-05	1.09E-05	-4.06E-05	-1.30E-05	-4.07E-05	-5.37E-05	-1.11E-18	-1.19E-18	-2.30E-18	3.71E-05	6.09E-06	4.31E-05	7.01E-05	-6.50E-05	5.06E-06	3.30E-05	3.37E-07	3.33E-05	4.78E-05	1.31E-05	6.09E-05	-7.93E-06	-2.93E-05	-3.73E-05	-3.95E-05	1.73E-05	-2.22E-05	-1.94E-05	2.25E-05	3.14E-06	-9.78E-05	0.000120909	2.31E-05	6.73E-05	-5.39E-05	1.34E-05	6.90E-05	-4.60E-05	2.30E-05	3.18E-19	-9.55E-19	-6.38E-19	1.35E-05	3.78E-06	1.73E-05	-3.73E-05	7.81E-05	4.09E-05	2.62E-05	2.87E-05	5.49E-05	9.05E-05	-2.46E-05	6.59E-05	0.000185622	-2.41E-05	0.000161539	7.44E-05	-2.09E-05	5.35E-05	3.00E-05	2.41E-05	5.40E-05	-4.61E-05	2.73E-05	-1.89E-05	1
-1.16	7.69E-06	-5.26E-06	2.42E-06	2.06E-05	-3.91E-06	1.67E-05	4.09E-18	2.71E-18	6.81E-18	-4.30E-05	7.35E-06	-3.56E-05	-8.09E-05	8.82E-05	7.33E-06	-5.36E-05	3.09E-05	-2.27E-05	-4.33E-05	-1.88E-05	-6.21E-05	1.60E-05	-1.67E-05	-6.87E-07	1.06E-05	-3.07E-05	-2.02E-05	8.37E-06	-7.96E-06	4.08E-07	5.67E-05	-4.68E-05	9.95E-06	-5.44E-05	4.85E-05	-5.85E-06	-5.29E-05	4.45E-05	-8.32E-06	-1.73E-18	-1.06E-17	-1.24E-17	1.83E-05	-7.66E-06	1.06E-05	5.55E-05	-9.15E-05	-3.60E-05	8.21E-05	-0.000107591	-2.54E-05	-0.000104064	7.34E-05	-3.06E-05	-0.000239011	0.000245658	6.65E-06	-0.000103819	7.83E-05	-2.55E-05	-2.98E-05	-3.34E-05	-6.32E-05	3.11E-05	-5.77E-05	-2.66E-05	-4.79E-05	1.03E-05	-3.76E-05	-1.22E-05	-3.71E-05	-4.94E-05	-7.41E-19	-9.91E-19	-1.73E-18	3.94E-05	4.28E-06	4.36E-05	7.88E-05	-7.14E-05	7.35E-06	3.77E-05	-4.25E-06	3.34E-05	4.66E-05	1.33E-05	6.00E-05	-8.59E-06	-2.47E-05	-3.33E-05	-3.88E-05	1.84E-05	-2.04E-05	-1.77E-05	1.89E-05	1.20E-06	-9.05E-05	0.000105869	1.54E-05	6.76E-05	-5.49E-05	1.27E-05	7.02E-05	-4.70E-05	2.33E-05	2.38E-19	-8.55E-19	-6.17E-19	1.25E-05	1.02E-06	1.36E-05	-3.94E-05	6.99E-05	3.06E-05	2.37E-05	1.71E-05	4.08E-05	9.13E-05	-2.77E-05	6.36E-05	0.000183459	-2.91E-05	0.000154402	7.58E-05	-2.48E-05	5.10E-05	2.96E-05	2.36E-05	5.31E-05	-4.34E-05	2.74E-05	-1.60E-05	1
-1.12	7.85E-06	-9.99E-06	-2.15E-06	1.95E-05	-7.40E-06	1.21E-05	6.34E-18	1.10E-18	7.44E-18	-4.34E-05	8.48E-06	-3.49E-05	-8.37E-05	9.12E-05	7.48E-06	-5.60E-05	3.42E-05	-2.18E-05	-4.12E-05	-1.87E-05	-5.99E-05	1.36E-05	-1.69E-05	-3.26E-06	1.11E-05	-3.28E-05	-2.17E-05	8.02E-06	-6.97E-06	1.05E-06	5.45E-05	-4.08E-05	1.37E-05	-5.47E-05	4.80E-05	-6.65E-06	-5.38E-05	4.41E-05	-9.66E-06	4.51E-19	-7.99E-18	-7.54E-18	1.83E-05	-6.37E-06	1.19E-05	6.21E-05	-8.70E-05	-2.49E-05	8.54E-05	-9.69E-05	-1.14E-05	-9.92E-05	6.82E-05	-3.10E-05	-0.000224853	0.000230794	5.94E-06	-0.000101644	7.67E-05	-2.50E-05	-2.93E-05	-3.18E-05	-6.11E-05	3.08E-05	-5.76E-05	-2.67E-05	-4.38E-05	9.49E-06	-3.43E-05	-1.13E-05	-3.32E-05	-4.46E-05	-3.69E-19	-7.76E-19	-1.15E-18	4.11E-05	2.48E-06	4.36E-05	8.63E-05	-7.68E-05	9.52E-06	4.18E-05	-8.60E-06	3.32E-05	4.49E-05	1.34E-05	5.83E-05	-9.13E-06	-1.99E-05	-2.90E-05	-3.76E-05	1.93E-05	-1.83E-05	-1.58E-05	1.51E-05	-6.98E-07	-8.22E-05	9.00E-05	7.71E-06	6.71E-05	-5.52E-05	1.19E-05	7.06E-05	-4.73E-05	2.33E-05	1.56E-19	-7.44E-19	-5.88E-19	1.15E-05	-1.68E-06	9.82E-06	-4.08E-05	6.11E-05	2.02E-05	2.11E-05	5.63E-06	2.68E-05	9.09E-05	-3.04E-05	6.06E-05	0.000179034	-3.35E-05	0.000145573	7.61E-05	-2.82E-05	4.79E-05	2.89E-05	2.27E-05	5.16E-05	-4.03E-05	2.72E-05	-1.31E-05	1
-1.08	7.90E-06	-1.45E-05	-6.60E-06	1.82E-05	-1.07E-05	7.43E-06	8.53E-18	-5.25E-19	8.01E-18	-4.33E-05	9.50E-06	-3.38E-05	-8.54E-05	9.30E-05	7.57E-06	-5.78E-05	3.71E-05	-2.07E-05	-3.87E-05	-1.83E-05	-5.70E-05	1.11E-05	-1.69E-05	-5.76E-06	1.15E-05	-3.45E-05	-2.29E-05	7.60E-06	-5.93E-06	1.67E-06	5.16E-05	-3.44E-05	1.72E-05	-5.43E-05	4.69E-05	-7.33E-06	-5.40E-05	4.31E-05	-1.09E-05	2.63E-18	-5.26E-18	-2.62E-18	1.81E-05	-5.05E-06	1.30E-05	6.80E-05	-8.17E-05	-1.37E-05	8.77E-05	-8.52E-05	2.51E-06	-9.31E-05	6.21E-05	-3.10E-05	-0.000208171	0.000213367	5.20E-06	-9.83E-05	7.41E-05	-2.41E-05	-2.84E-05	-2.98E-05	-5.82E-05	3.01E-05	-5.67E-05	-2.66E-05	-3.92E-05	8.59E-06	-3.06E-05	-1.03E-05	-2.91E-05	-3.93E-05	4.17E-21	-5.50E-19	-5.46E-19	4.24E-05	6.80E-07	4.31E-05	9.26E-05	-8.10E-05	1.16E-05	4.53E-05	-1.27E-05	3.26E-05	4.27E-05	1.33E-05	5.60E-05	-9.54E-06	-1.50E-05	-2.45E-05	-3.60E-05	1.99E-05	-1.61E-05	-1.37E-05	1.12E-05	-2.55E-06	-7.31E-05	7.32E-05	1.05E-07	6.58E-05	-5.48E-05	1.10E-05	7.00E-05	-4.70E-05	2.30E-05	7.22E-20	-6.23E-19	-5.51E-19	1.03E-05	-4.30E-06	6.04E-06	-4.17E-05	5.16E-05	9.88E-06	1.84E-05	-5.71E-06	1.27E-05	8.94E-05	-3.26E-05	5.69E-05	0.000172425	-3.73E-05	0.000135113	7.55E-05	-3.12E-05	4.44E-05	2.78E-05	2.17E-05	4.95E-05	-3.67E-05	2.66E-05	-1.00E-05	1
-1.04	7.86E-06	-1.88E-05	-1.09E-05	1.66E-05	-1.39E-05	2.69E-06	1.06E-17	-2.15E-18	8.50E-18	-4.27E-05	1.04E-05	-3.23E-05	-8.62E-05	9.38E-05	7.59E-06	-5.87E-05	3.94E-05	-1.93E-05	-3.57E-05	-1.78E-05	-5.34E-05	8.55E-06	-1.67E-05	-8.18E-06	1.18E-05	-3.57E-05	-2.39E-05	7.12E-06	-4.83E-06	2.28E-06	4.82E-05	-2.77E-05	2.06E-05	-5.32E-05	4.53E-05	-7.91E-06	-5.36E-05	4.17E-05	-1.19E-05	4.80E-18	-2.46E-18	2.34E-18	1.77E-05	-3.70E-06	1.40E-05	7.30E-05	-7.54E-05	-2.36E-06	8.91E-05	-7.27E-05	1.64E-05	-8.59E-05	5.54E-05	-3.05E-05	-0.000189093	0.000193502	4.41E-06	-9.37E-05	7.07E-05	-2.30E-05	-2.72E-05	-2.75E-05	-5.46E-05	2.91E-05	-5.52E-05	-2.61E-05	-3.41E-05	7.58E-06	-2.66E-05	-9.07E-06	-2.46E-05	-3.37E-05	3.76E-19	-3.16E-19	6.01E-20	4.31E-05	-1.10E-06	4.20E-05	9.77E-05	-8.42E-05	1.35E-05	4.82E-05	-1.66E-05	3.16E-05	4.00E-05	1.31E-05	5.31E-05	-9.82E-06	-9.90E-06	-1.97E-05	-3.39E-05	2.03E-05	-1.36E-05	-1.15E-05	7.16E-06	-4.35E-06	-6.32E-05	5.58E-05	-7.42E-06	6.37E-05	-5.37E-05	9.94E-06	6.86E-05	-4.61E-05	2.25E-05	-1.30E-20	-4.94E-19	-5.07E-19	9.08E-06	-6.85E-06	2.23E-06	-4.21E-05	4.16E-05	-4.72E-07	1.56E-05	-1.69E-05	-1.32E-06	8.68E-05	-3.43E-05	5.25E-05	0.000163724	-4.06E-05	0.000123098	7.39E-05	-3.37E-05	4.03E-05	2.64E-05	2.03E-05	4.67E-05	-3.27E-05	2.57E-05	-6.95E-06	1
-1	7.72E-06	-2.29E-05	-1.51E-05	1.49E-05	-1.70E-05	-2.08E-06	1.27E-17	-3.76E-18	8.89E-18	-4.16E-05	1.12E-05	-3.04E-05	-8.59E-05	9.34E-05	7.53E-06	-5.90E-05	4.14E-05	-1.77E-05	-3.22E-05	-1.70E-05	-4.92E-05	5.86E-06	-1.64E-05	-1.05E-05	1.20E-05	-3.66E-05	-2.46E-05	6.56E-06	-3.69E-06	2.87E-06	4.43E-05	-2.06E-05	2.37E-05	-5.15E-05	4.31E-05	-8.39E-06	-5.25E-05	3.97E-05	-1.28E-05	6.92E-18	3.75E-19	7.30E-18	1.71E-05	-2.31E-06	1.48E-05	7.73E-05	-6.83E-05	9.03E-06	8.95E-05	-5.94E-05	3.01E-05	-7.78E-05	4.80E-05	-2.98E-05	-0.000167768	0.000171343	3.58E-06	-8.80E-05	6.64E-05	-2.16E-05	-2.56E-05	-2.48E-05	-5.04E-05	2.78E-05	-5.31E-05	-2.53E-05	-2.87E-05	6.46E-06	-2.22E-05	-7.74E-06	-1.99E-05	-2.76E-05	7.46E-19	-7.63E-20	6.69E-19	4.33E-05	-2.87E-06	4.05E-05	0.000101682	-8.64E-05	1.53E-05	5.05E-05	-2.03E-05	3.02E-05	3.68E-05	1.27E-05	4.95E-05	-9.99E-06	-4.73E-06	-1.47E-05	-3.15E-05	2.04E-05	-1.11E-05	-9.15E-06	3.05E-06	-6.10E-06	-5.25E-05	3.77E-05	-1.48E-05	6.08E-05	-5.20E-05	8.80E-06	6.63E-05	-4.46E-05	2.17E-05	-9.88E-20	-3.57E-19	-4.56E-19	7.72E-06	-9.32E-06	-1.60E-06	-4.19E-05	3.11E-05	-1.08E-05	1.26E-05	-2.79E-05	-1.53E-05	8.31E-05	-3.56E-05	4.75E-05	0.000153041	-4.34E-05	0.000109612	7.15E-05	-3.57E-05	3.58E-05	2.47E-05	1.87E-05	4.35E-05	-2.83E-05	2.45E-05	-3.78E-06	1
-0.96	7.50E-06	-2.67E-05	-1.92E-05	1.30E-05	-1.98E-05	-6.86E-06	1.45E-17	-5.34E-18	9.19E-18	-4.00E-05	1.19E-05	-2.81E-05	-8.46E-05	9.20E-05	7.40E-06	-5.87E-05	4.28E-05	-1.58E-05	-2.84E-05	-1.61E-05	-4.45E-05	3.08E-06	-1.58E-05	-1.27E-05	1.20E-05	-3.71E-05	-2.51E-05	5.93E-06	-2.50E-06	3.44E-06	3.98E-05	-1.33E-05	2.65E-05	-4.92E-05	4.04E-05	-8.78E-06	-5.08E-05	3.73E-05	-1.35E-05	8.99E-18	3.24E-18	1.22E-17	1.63E-05	-8.98E-07	1.54E-05	8.07E-05	-6.03E-05	2.04E-05	8.89E-05	-4.54E-05	4.35E-05	-6.86E-05	4.00E-05	-2.86E-05	-0.000144359	0.000147053	2.69E-06	-8.13E-05	6.13E-05	-1.99E-05	-2.37E-05	-2.19E-05	-4.56E-05	2.61E-05	-5.03E-05	-2.42E-05	-2.28E-05	5.26E-06	-1.76E-05	-6.31E-06	-1.49E-05	-2.12E-05	1.11E-18	1.67E-19	1.28E-18	4.30E-05	-4.61E-06	3.84E-05	0.000104496	-8.76E-05	1.69E-05	5.23E-05	-2.38E-05	2.85E-05	3.32E-05	1.21E-05	4.53E-05	-1.00E-05	5.32E-07	-9.50E-06	-2.87E-05	2.03E-05	-8.38E-06	-6.66E-06	-1.13E-06	-7.78E-06	-4.11E-05	1.90E-05	-2.21E-05	5.72E-05	-4.96E-05	7.56E-06	6.33E-05	-4.27E-05	2.06E-05	-1.84E-19	-2.16E-19	-4.00E-19	6.26E-06	-1.17E-05	-5.44E-06	-4.12E-05	2.01E-05	-2.11E-05	9.44E-06	-3.86E-05	-2.92E-05	7.84E-05	-3.65E-05	4.20E-05	0.000140501	-4.57E-05	9.48E-05	6.81E-05	-3.73E-05	3.08E-05	2.27E-05	1.69E-05	3.96E-05	-2.36E-05	2.30E-05	-5.56E-07	1
-0.92	7.18E-06	-3.03E-05	-2.31E-05	1.09E-05	-2.25E-05	-1.16E-05	1.63E-17	-6.88E-18	9.38E-18	-3.79E-05	1.24E-05	-2.55E-05	-8.25E-05	8.96E-05	7.17E-06	-5.77E-05	4.38E-05	-1.38E-05	-2.42E-05	-1.49E-05	-3.91E-05	2.30E-07	-1.51E-05	-1.49E-05	1.19E-05	-3.71E-05	-2.52E-05	5.23E-06	-1.26E-06	3.97E-06	3.48E-05	-5.72E-06	2.91E-05	-4.64E-05	3.73E-05	-9.08E-06	-4.86E-05	3.45E-05	-1.41E-05	1.10E-17	6.10E-18	1.71E-17	1.53E-05	5.49E-07	1.59E-05	8.33E-05	-5.16E-05	3.18E-05	8.73E-05	-3.06E-05	5.67E-05	-5.86E-05	3.15E-05	-2.72E-05	-0.000119048	0.000120813	1.76E-06	-7.36E-05	5.55E-05	-1.80E-05	-2.16E-05	-1.86E-05	-4.02E-05	2.41E-05	-4.69E-05	-2.28E-05	-1.67E-05	3.97E-06	-1.27E-05	-4.77E-06	-9.64E-06	-1.44E-05	1.47E-18	4.11E-19	1.88E-18	4.23E-05	-6.33E-06	3.59E-05	0.000106205	-8.79E-05	1.83E-05	5.35E-05	-2.71E-05	2.64E-05	2.92E-05	1.14E-05	4.06E-05	-9.97E-06	5.86E-06	-4.11E-06	-2.55E-05	2.00E-05	-5.54E-06	-4.05E-06	-5.35E-06	-9.41E-06	-2.91E-05	-1.43E-07	-2.93E-05	5.29E-05	-4.67E-05	6.22E-06	5.95E-05	-4.02E-05	1.93E-05	-2.69E-19	-7.04E-20	-3.39E-19	4.71E-06	-1.40E-05	-9.27E-06	-4.00E-05	8.78E-06	-3.13E-05	6.16E-06	-4.91E-05	-4.29E-05	7.29E-05	-3.70E-05	3.58E-05	0.000126245	-4.76E-05	7.86E-05	6.40E-05	-3.86E-05	2.54E-05	2.04E-05	1.49E-05	3.53E-05	-1.85E-05	2.12E-05	2.72E-06	1
-0.88	6.78E-06	-3.36E-05	-2.68E-05	8.62E-06	-2.50E-05	-1.64E-05	1.78E-17	-8.37E-18	9.44E-18	-3.54E-05	1.28E-05	-2.26E-05	-7.94E-05	8.62E-05	6.85E-06	-5.60E-05	4.44E-05	-1.16E-05	-1.97E-05	-1.36E-05	-3.33E-05	-2.69E-06	-1.42E-05	-1.69E-05	1.17E-05	-3.68E-05	-2.51E-05	4.45E-06	1.92E-08	4.47E-06	2.94E-05	2.08E-06	3.15E-05	-4.30E-05	3.37E-05	-9.30E-06	-4.58E-05	3.12E-05	-1.46E-05	1.29E-17	8.95E-18	2.18E-17	1.42E-05	2.03E-06	1.62E-05	8.51E-05	-4.21E-05	4.30E-05	8.48E-05	-1.52E-05	6.96E-05	-4.78E-05	2.24E-05	-2.54E-05	-9.20E-05	9.28E-05	7.83E-07	-6.50E-05	4.91E-05	-1.59E-05	-1.92E-05	-1.51E-05	-3.43E-05	2.18E-05	-4.30E-05	-2.12E-05	-1.02E-05	2.62E-06	-7.57E-06	-3.16E-06	-4.22E-06	-7.38E-06	1.81E-18	6.52E-19	2.46E-18	4.11E-05	-8.02E-06	3.30E-05	0.00010685	-8.72E-05	1.96E-05	5.42E-05	-3.01E-05	2.41E-05	2.47E-05	1.06E-05	3.54E-05	-9.79E-06	1.12E-05	1.45E-06	-2.20E-05	1.94E-05	-2.58E-06	-1.36E-06	-9.61E-06	-1.10E-05	-1.66E-05	-1.97E-05	-3.63E-05	4.80E-05	-4.32E-05	4.77E-06	5.51E-05	-3.72E-05	1.78E-05	-3.51E-19	7.71E-20	-2.74E-19	3.09E-06	-1.62E-05	-1.31E-05	-3.85E-05	-2.87E-06	-4.13E-05	2.71E-06	-5.92E-05	-5.65E-05	6.64E-05	-3.72E-05	2.92E-05	0.000110427	-4.91E-05	6.14E-05	5.92E-05	-3.95E-05	1.96E-05	1.79E-05	1.27E-05	3.06E-05	-1.32E-05	1.92E-05	6.05E-06	1
-0.84	6.31E-06	-3.67E-05	-3.04E-05	6.21E-06	-2.73E-05	-2.11E-05	1.91E-17	-9.78E-18	9.36E-18	-3.25E-05	1.31E-05	-1.94E-05	-7.54E-05	8.19E-05	6.43E-06	-5.38E-05	4.46E-05	-9.25E-06	-1.49E-05	-1.21E-05	-2.70E-05	-5.67E-06	-1.31E-05	-1.87E-05	1.13E-05	-3.60E-05	-2.47E-05	3.60E-06	1.34E-06	4.94E-06	2.35E-05	1.00E-05	3.36E-05	-3.91E-05	2.97E-05	-9.45E-06	-4.25E-05	2.75E-05	-1.50E-05	1.46E-17	1.18E-17	2.64E-17	1.28E-05	3.53E-06	1.64E-05	8.60E-05	-3.20E-05	5.40E-05	8.12E-05	8.03E-07	8.20E-05	-3.64E-05	1.30E-05	-2.34E-05	-6.35E-05	6.33E-05	-2.52E-07	-5.56E-05	4.20E-05	-1.36E-05	-1.66E-05	-1.14E-05	-2.79E-05	1.93E-05	-3.86E-05	-1.93E-05	-3.47E-06	1.23E-06	-2.24E-06	-1.49E-06	1.40E-06	-9.63E-08	2.14E-18	8.87E-19	3.03E-18	3.94E-05	-9.67E-06	2.98E-05	0.000106479	-8.58E-05	2.07E-05	5.44E-05	-3.30E-05	2.14E-05	2.00E-05	9.67E-06	2.96E-05	-9.51E-06	1.66E-05	7.13E-06	-1.82E-05	1.87E-05	4.88E-07	1.40E-06	-1.39E-05	-1.25E-05	-3.66E-06	-3.95E-05	-4.31E-05	4.25E-05	-3.92E-05	3.24E-06	5.00E-05	-3.39E-05	1.61E-05	-4.31E-19	2.25E-19	-2.07E-19	1.38E-06	-1.83E-05	-1.69E-05	-3.65E-05	-1.48E-05	-5.13E-05	-8.92E-07	-6.91E-05	-7.00E-05	5.92E-05	-3.71E-05	2.22E-05	9.32E-05	-5.01E-05	4.31E-05	5.37E-05	-4.01E-05	1.35E-05	1.51E-05	1.03E-05	2.54E-05	-7.55E-06	1.70E-05	9.41E-06	1
-0.8	5.77E-06	-3.96E-05	-3.38E-05	3.68E-06	-2.94E-05	-2.57E-05	2.03E-17	-1.11E-17	9.15E-18	-2.93E-05	1.33E-05	-1.60E-05	-7.07E-05	7.66E-05	5.91E-06	-5.11E-05	4.43E-05	-6.78E-06	-9.85E-06	-1.04E-05	-2.03E-05	-8.70E-06	-1.18E-05	-2.05E-05	1.08E-05	-3.49E-05	-2.41E-05	2.67E-06	2.69E-06	5.36E-06	1.72E-05	1.82E-05	3.54E-05	-3.48E-05	2.53E-05	-9.55E-06	-3.88E-05	2.35E-05	-1.53E-05	1.62E-17	1.45E-17	3.08E-17	1.13E-05	5.07E-06	1.64E-05	8.61E-05	-2.12E-05	6.49E-05	7.67E-05	1.73E-05	9.40E-05	-2.43E-05	3.20E-06	-2.11E-05	-3.37E-05	3.24E-05	-1.34E-06	-4.55E-05	3.43E-05	-1.11E-05	-1.37E-05	-7.46E-06	-2.12E-05	1.65E-05	-3.36E-05	-1.72E-05	3.45E-06	-2.07E-07	3.25E-06	2.17E-07	7.17E-06	7.39E-06	2.46E-18	1.11E-18	3.58E-18	3.74E-05	-1.13E-05	2.61E-05	0.000105148	-8.35E-05	2.16E-05	5.41E-05	-3.57E-05	1.85E-05	1.49E-05	8.62E-06	2.35E-05	-9.14E-06	2.21E-05	1.29E-05	-1.41E-05	1.77E-05	3.64E-06	4.22E-06	-1.81E-05	-1.39E-05	9.67E-06	-5.95E-05	-4.98E-05	3.64E-05	-3.48E-05	1.61E-06	4.43E-05	-3.02E-05	1.42E-05	-5.08E-19	3.71E-19	-1.37E-19	-3.92E-07	-2.02E-05	-2.06E-05	-3.42E-05	-2.68E-05	-6.10E-05	-4.67E-06	-7.85E-05	-8.32E-05	5.14E-05	-3.66E-05	1.47E-05	7.48E-05	-5.08E-05	2.40E-05	4.76E-05	-4.05E-05	7.14E-06	1.22E-05	7.75E-06	1.99E-05	-1.70E-06	1.45E-05	1.28E-05	1
-0.76	5.17E-06	-4.22E-05	-3.70E-05	1.03E-06	-3.13E-05	-3.03E-05	2.11E-17	-1.24E-17	8.79E-18	-2.57E-05	1.34E-05	-1.23E-05	-6.53E-05	7.06E-05	5.29E-06	-4.79E-05	4.36E-05	-4.21E-06	-4.61E-06	-8.60E-06	-1.32E-05	-1.18E-05	-1.03E-05	-2.21E-05	1.01E-05	-3.34E-05	-2.33E-05	1.67E-06	4.07E-06	5.74E-06	1.06E-05	2.64E-05	3.70E-05	-3.01E-05	2.05E-05	-9.59E-06	-3.47E-05	1.92E-05	-1.54E-05	1.77E-17	1.72E-17	3.49E-17	9.56E-06	6.64E-06	1.62E-05	8.53E-05	-9.88E-06	7.54E-05	7.12E-05	3.42E-05	0.000105431	-1.18E-05	-6.85E-06	-1.86E-05	-2.92E-06	4.39E-07	-2.48E-06	-3.47E-05	2.62E-05	-8.53E-06	-1.07E-05	-3.35E-06	-1.40E-05	1.34E-05	-2.83E-05	-1.49E-05	1.05E-05	-1.66E-06	8.86E-06	1.95E-06	1.31E-05	1.50E-05	2.76E-18	1.33E-18	4.09E-18	3.50E-05	-1.29E-05	2.21E-05	0.000102917	-8.06E-05	2.23E-05	5.34E-05	-3.82E-05	1.52E-05	9.54E-06	7.46E-06	1.70E-05	-8.67E-06	2.74E-05	1.88E-05	-9.77E-06	1.66E-05	6.87E-06	7.06E-06	-2.23E-05	-1.52E-05	2.33E-05	-7.95E-05	-5.62E-05	3.00E-05	-3.01E-05	-1.00E-07	3.82E-05	-2.61E-05	1.20E-05	-5.80E-19	5.14E-19	-6.62E-20	-2.22E-06	-2.21E-05	-2.43E-05	-3.17E-05	-3.89E-05	-7.06E-05	-8.62E-06	-8.76E-05	-9.62E-05	4.29E-05	-3.60E-05	6.90E-06	5.53E-05	-5.12E-05	4.07E-06	4.11E-05	-4.06E-05	4.70E-07	9.03E-06	5.08E-06	1.41E-05	4.33E-06	1.19E-05	1.62E-05	1
-0.72	4.51E-06	-4.46E-05	-4.01E-05	-1.72E-06	-3.30E-05	-3.47E-05	2.17E-17	-1.35E-17	8.27E-18	-2.18E-05	1.33E-05	-8.49E-06	-5.91E-05	6.37E-05	4.55E-06	-4.42E-05	4.26E-05	-1.58E-06	7.80E-07	-6.64E-06	-5.86E-06	-1.49E-05	-8.68E-06	-2.36E-05	9.32E-06	-3.15E-05	-2.22E-05	5.93E-07	5.47E-06	6.06E-06	3.63E-06	3.46E-05	3.82E-05	-2.51E-05	1.55E-05	-9.59E-06	-3.02E-05	1.46E-05	-1.55E-05	1.90E-17	1.97E-17	3.87E-17	7.65E-06	8.23E-06	1.59E-05	8.37E-05	1.95E-06	8.56E-05	6.48E-05	5.15E-05	0.000116265	1.13E-06	-1.71E-05	-1.60E-05	2.87E-05	-3.24E-05	-3.68E-06	-2.35E-05	1.76E-05	-5.80E-06	-7.52E-06	8.95E-07	-6.63E-06	1.01E-05	-2.25E-05	-1.24E-05	1.77E-05	-3.11E-06	1.46E-05	3.68E-06	1.91E-05	2.28E-05	3.05E-18	1.53E-18	4.58E-18	3.22E-05	-1.44E-05	1.78E-05	9.98E-05	-7.70E-05	2.29E-05	5.23E-05	-4.05E-05	1.18E-05	3.96E-06	6.22E-06	1.02E-05	-8.13E-06	3.28E-05	2.47E-05	-5.25E-06	1.54E-05	1.02E-05	9.91E-06	-2.64E-05	-1.65E-05	3.70E-05	-9.95E-05	-6.24E-05	2.31E-05	-2.50E-05	-1.89E-06	3.16E-05	-2.18E-05	9.78E-06	-6.48E-19	6.52E-19	4.70E-21	-4.11E-06	-2.38E-05	-2.80E-05	-2.89E-05	-5.11E-05	-7.99E-05	-1.28E-05	-9.62E-05	-0.000108934	3.39E-05	-3.51E-05	-1.21E-06	3.50E-05	-5.14E-05	-1.64E-05	3.41E-05	-4.05E-05	-6.42E-06	5.73E-06	2.31E-06	8.04E-06	1.05E-05	9.12E-06	1.96E-05	1
-0.68	3.80E-06	-4.67E-05	-4.29E-05	-4.54E-06	-3.45E-05	-3.91E-05	2.21E-17	-1.45E-17	7.59E-18	-1.77E-05	1.32E-05	-4.53E-06	-5.24E-05	5.61E-05	3.70E-06	-4.01E-05	4.12E-05	1.09E-06	6.27E-06	-4.55E-06	1.72E-06	-1.80E-05	-6.86E-06	-2.49E-05	8.38E-06	-2.93E-05	-2.09E-05	-5.60E-07	6.90E-06	6.34E-06	-3.64E-06	4.29E-05	3.92E-05	-1.98E-05	1.02E-05	-9.55E-06	-2.54E-05	9.80E-06	-1.56E-05	2.01E-17	2.22E-17	4.23E-17	5.57E-06	9.85E-06	1.54E-05	8.12E-05	1.42E-05	9.54E-05	5.74E-05	6.91E-05	0.000126441	1.43E-05	-2.75E-05	-1.32E-05	6.09E-05	-6.58E-05	-4.93E-06	-1.18E-05	8.77E-06	-2.99E-06	-4.24E-06	5.25E-06	1.01E-06	6.70E-06	-1.64E-05	-9.69E-06	2.49E-05	-4.54E-06	2.03E-05	5.38E-06	2.52E-05	3.06E-05	3.31E-18	1.71E-18	5.02E-18	2.92E-05	-1.59E-05	1.33E-05	9.60E-05	-7.28E-05	2.32E-05	5.08E-05	-4.27E-05	8.14E-06	-1.81E-06	4.92E-06	3.11E-06	-7.51E-06	3.81E-05	3.06E-05	-5.66E-07	1.40E-05	1.35E-05	1.27E-05	-3.05E-05	-1.77E-05	5.09E-05	-0.000119299	-6.84E-05	1.59E-05	-1.97E-05	-3.75E-06	2.47E-05	-1.73E-05	7.37E-06	-7.09E-19	7.84E-19	7.47E-20	-6.03E-06	-2.55E-05	-3.15E-05	-2.59E-05	-6.32E-05	-8.90E-05	-1.71E-05	-0.000104323	-0.000121404	2.46E-05	-3.41E-05	-9.54E-06	1.40E-05	-5.13E-05	-3.73E-05	2.68E-05	-4.03E-05	-1.35E-05	2.32E-06	-5.46E-07	1.77E-06	1.68E-05	6.24E-06	2.31E-05	1
-0.64	3.06E-06	-4.86E-05	-4.55E-05	-7.43E-06	-3.58E-05	-4.32E-05	2.21E-17	-1.53E-17	6.74E-18	-1.34E-05	1.29E-05	-4.65E-07	-4.51E-05	4.79E-05	2.73E-06	-3.57E-05	3.94E-05	3.77E-06	1.18E-05	-2.34E-06	9.48E-06	-2.11E-05	-4.88E-06	-2.60E-05	7.30E-06	-2.67E-05	-1.94E-05	-1.79E-06	8.34E-06	6.55E-06	-1.12E-05	5.11E-05	3.99E-05	-1.42E-05	4.75E-06	-9.49E-06	-2.03E-05	4.75E-06	-1.56E-05	2.09E-17	2.45E-17	4.54E-17	3.32E-06	1.15E-05	1.48E-05	7.79E-05	2.68E-05	0.000104721	4.91E-05	8.68E-05	0.000135899	2.76E-05	-3.79E-05	-1.02E-05	9.34E-05	-9.96E-05	-6.24E-06	2.45E-07	-3.66E-07	-1.21E-07	-8.79E-07	9.69E-06	8.81E-06	3.09E-06	-9.97E-06	-6.89E-06	3.21E-05	-5.94E-06	2.61E-05	7.05E-06	3.13E-05	3.84E-05	3.54E-18	1.88E-18	5.42E-18	2.59E-05	-1.73E-05	8.58E-06	9.15E-05	-6.82E-05	2.33E-05	4.90E-05	-4.47E-05	4.29E-06	-7.73E-06	3.55E-06	-4.18E-06	-6.82E-06	4.33E-05	3.65E-05	4.24E-06	1.26E-05	1.68E-05	1.55E-05	-3.44E-05	-1.88E-05	6.47E-05	-0.000138852	-7.42E-05	8.46E-06	-1.41E-05	-5.69E-06	1.75E-05	-1.26E-05	4.84E-06	-7.64E-19	9.07E-19	1.43E-19	-7.99E-06	-2.70E-05	-3.50E-05	-2.28E-05	-7.51E-05	-9.78E-05	-2.16E-05	-0.000111977	-0.000133571	1.49E-05	-3.30E-05	-1.80E-05	-7.37E-06	-5.11E-05	-5.84E-05	1.93E-05	-4.00E-05	-2.07E-05	-1.19E-06	-3.46E-06	-4.64E-06	2.32E-05	3.29E-06	2.65E-05	1
-0.6	2.29E-06	-5.03E-05	-4.80E-05	-1.04E-05	-3.69E-05	-4.72E-05	2.18E-17	-1.61E-17	5.73E-18	-8.86E-06	1.25E-05	3.66E-06	-3.74E-05	3.90E-05	1.65E-06	-3.09E-05	3.74E-05	6.42E-06	1.74E-05	-3.57E-08	1.73E-05	-2.43E-05	-2.73E-06	-2.70E-05	6.09E-06	-2.38E-05	-1.78E-05	-3.09E-06	9.80E-06	6.71E-06	-1.89E-05	5.92E-05	4.03E-05	-8.51E-06	-9.12E-07	-9.42E-06	-1.51E-05	-4.58E-07	-1.55E-05	2.16E-17	2.66E-17	4.82E-17	8.99E-07	1.32E-05	1.41E-05	7.37E-05	3.98E-05	0.000113517	3.99E-05	0.00010468	0.000144585	4.10E-05	-4.82E-05	-7.23E-06	0.000125932	-0.000133521	-7.59E-06	1.25E-05	-9.69E-06	2.78E-06	2.54E-06	1.42E-05	1.67E-05	-6.70E-07	-3.31E-06	-3.98E-06	3.92E-05	-7.29E-06	3.19E-05	8.64E-06	3.75E-05	4.61E-05	3.75E-18	2.02E-18	5.78E-18	2.24E-05	-1.87E-05	3.66E-06	8.63E-05	-6.31E-05	2.32E-05	4.69E-05	-4.66E-05	2.85E-07	-1.37E-05	2.14E-06	-1.16E-05	-6.09E-06	4.84E-05	4.23E-05	9.13E-06	1.11E-05	2.02E-05	1.83E-05	-3.82E-05	-1.99E-05	7.84E-05	-0.000158023	-7.96E-05	8.21E-07	-8.50E-06	-7.68E-06	1.00E-05	-7.83E-06	2.20E-06	-8.11E-19	1.02E-18	2.09E-19	-9.98E-06	-2.84E-05	-3.84E-05	-1.96E-05	-8.68E-05	-0.000106352	-2.63E-05	-0.000119112	-0.000145412	5.09E-06	-3.17E-05	-2.67E-05	-2.90E-05	-5.07E-05	-7.97E-05	1.16E-05	-3.96E-05	-2.79E-05	-4.75E-06	-6.40E-06	-1.12E-05	2.96E-05	2.95E-07	2.99E-05	1
-0.56	1.49E-06	-5.17E-05	-5.02E-05	-1.33E-05	-3.77E-05	-5.10E-05	2.12E-17	-1.66E-17	4.56E-18	-4.22E-06	1.20E-05	7.81E-06	-2.92E-05	2.97E-05	4.44E-07	-2.60E-05	3.50E-05	9.03E-06	2.29E-05	2.36E-06	2.53E-05	-2.74E-05	-4.34E-07	-2.78E-05	4.73E-06	-2.06E-05	-1.59E-05	-4.47E-06	1.13E-05	6.80E-06	-2.68E-05	6.72E-05	4.05E-05	-2.64E-06	-6.70E-06	-9.34E-06	-9.65E-06	-5.80E-06	-1.54E-05	2.20E-17	2.85E-17	5.05E-17	-1.67E-06	1.49E-05	1.32E-05	6.88E-05	5.29E-05	0.000121732	2.99E-05	0.000122575	0.000152446	5.43E-05	-5.85E-05	-4.17E-06	0.000158314	-0.000167303	-8.99E-06	2.48E-05	-1.91E-05	5.68E-06	5.97E-06	1.87E-05	2.46E-05	-4.54E-06	3.56E-06	-9.76E-07	4.62E-05	-8.57E-06	3.76E-05	1.01E-05	4.37E-05	5.38E-05	3.94E-18	2.14E-18	6.08E-18	1.86E-05	-2.00E-05	-1.39E-06	8.06E-05	-5.77E-05	2.29E-05	4.46E-05	-4.85E-05	-3.86E-06	-1.98E-05	7.02E-07	-1.91E-05	-5.31E-06	5.34E-05	4.81E-05	1.41E-05	9.45E-06	2.35E-05	2.09E-05	-4.18E-05	-2.09E-05	9.19E-05	-0.000176704	-8.49E-05	-6.94E-06	-2.78E-06	-9.73E-06	2.47E-06	-2.98E-06	-5.14E-07	-8.51E-19	1.12E-18	2.71E-19	-1.20E-05	-2.96E-05	-4.16E-05	-1.64E-05	-9.81E-05	-0.000114531	-3.12E-05	-0.000125703	-0.000156906	-4.85E-06	-3.05E-05	-3.53E-05	-5.07E-05	-5.02E-05	-0.00010089	3.93E-06	-3.92E-05	-3.53E-05	-8.35E-06	-9.35E-06	-1.77E-05	3.59E-05	-2.71E-06	3.32E-05	1
-0.52	6.86E-07	-5.29E-05	-5.23E-05	-1.62E-05	-3.84E-05	-5.46E-05	2.02E-17	-1.70E-17	3.22E-18	5.11E-07	1.14E-05	1.20E-05	-2.07E-05	1.98E-05	-8.76E-07	-2.08E-05	3.24E-05	1.16E-05	2.83E-05	4.83E-06	3.32E-05	-3.05E-05	2.01E-06	-2.85E-05	3.24E-06	-1.71E-05	-1.39E-05	-5.91E-06	1.27E-05	6.82E-06	-3.48E-05	7.51E-05	4.03E-05	3.31E-06	-1.26E-05	-9.26E-06	-4.12E-06	-1.12E-05	-1.53E-05	2.21E-17	3.03E-17	5.24E-17	-4.39E-06	1.66E-05	1.22E-05	6.31E-05	6.62E-05	0.000129314	1.90E-05	0.000140417	0.000159433	6.75E-05	-6.86E-05	-1.09E-06	0.000190279	-0.000200713	-1.04E-05	3.71E-05	-2.86E-05	8.56E-06	9.40E-06	2.32E-05	3.25E-05	-8.50E-06	1.06E-05	2.08E-06	5.30E-05	-9.76E-06	4.32E-05	1.15E-05	4.98E-05	6.13E-05	4.09E-18	2.23E-18	6.32E-18	1.48E-05	-2.13E-05	-6.53E-06	7.45E-05	-5.21E-05	2.24E-05	4.21E-05	-5.02E-05	-8.11E-06	-2.59E-05	-7.51E-07	-2.67E-05	-4.51E-06	5.82E-05	5.37E-05	1.90E-05	7.81E-06	2.68E-05	2.35E-05	-4.52E-05	-2.17E-05	0.000105014	-0.000194789	-8.98E-05	-1.48E-05	2.94E-06	-1.18E-05	-5.16E-06	1.86E-06	-3.29E-06	-8.82E-19	1.21E-18	3.29E-19	-1.40E-05	-3.08E-05	-4.48E-05	-1.32E-05	-0.000109139	-0.000122362	-3.63E-05	-0.000131729	-0.000168032	-1.48E-05	-2.92E-05	-4.40E-05	-7.22E-05	-4.97E-05	-0.000121884	-3.75E-06	-3.88E-05	-4.26E-05	-1.20E-05	-1.23E-05	-2.42E-05	4.22E-05	-5.70E-06	3.65E-05	1
-0.48	-1.25E-07	-5.39E-05	-5.41E-05	-1.92E-05	-3.89E-05	-5.80E-05	1.90E-17	-1.73E-17	1.72E-18	5.29E-06	1.08E-05	1.61E-05	-1.19E-05	9.62E-06	-2.31E-06	-1.54E-05	2.95E-05	1.40E-05	3.37E-05	7.35E-06	4.10E-05	-3.35E-05	4.60E-06	-2.89E-05	1.63E-06	-1.34E-05	-1.18E-05	-7.43E-06	1.42E-05	6.76E-06	-4.29E-05	8.27E-05	3.99E-05	9.29E-06	-1.85E-05	-9.18E-06	1.46E-06	-1.67E-05	-1.52E-05	2.20E-17	3.18E-17	5.38E-17	-7.24E-06	1.83E-05	1.11E-05	5.66E-05	7.96E-05	0.000136213	7.38E-06	0.000158125	0.000165502	8.03E-05	-7.84E-05	1.97E-06	0.0002216	-0.000233517	-1.19E-05	4.94E-05	-3.80E-05	1.14E-05	1.28E-05	2.76E-05	4.04E-05	-1.25E-05	1.77E-05	5.17E-06	5.96E-05	-1.08E-05	4.87E-05	1.28E-05	5.59E-05	6.87E-05	4.22E-18	2.29E-18	6.51E-18	1.08E-05	-2.25E-05	-1.17E-05	6.79E-05	-4.63E-05	2.17E-05	3.94E-05	-5.18E-05	-1.24E-05	-3.20E-05	-2.20E-06	-3.42E-05	-3.68E-06	6.29E-05	5.92E-05	2.39E-05	6.15E-06	3.01E-05	2.59E-05	-4.85E-05	-2.26E-05	0.000117772	-0.000212178	-9.44E-05	-2.26E-05	8.60E-06	-1.40E-05	-1.28E-05	6.66E-06	-6.11E-06	-9.04E-19	1.29E-18	3.82E-19	-1.60E-05	-3.18E-05	-4.78E-05	-1.01E-05	-0.000119675	-0.000129824	-4.16E-05	-0.000137172	-0.000178771	-2.46E-05	-2.79E-05	-5.25E-05	-9.33E-05	-4.92E-05	-0.00014251	-1.13E-05	-3.85E-05	-4.98E-05	-1.55E-05	-1.52E-05	-3.07E-05	4.85E-05	-8.64E-06	3.98E-05	1
-0.44	-9.32E-07	-5.48E-05	-5.57E-05	-2.21E-05	-3.91E-05	-6.12E-05	1.74E-17	-1.73E-17	6.44E-20	1.01E-05	9.99E-06	2.01E-05	-2.95E-06	-9.19E-07	-3.86E-06	-1.00E-05	2.63E-05	1.63E-05	3.88E-05	9.92E-06	4.87E-05	-3.65E-05	7.32E-06	-2.92E-05	-1.10E-07	-9.37E-06	-9.48E-06	-9.02E-06	1.57E-05	6.64E-06	-5.10E-05	9.01E-05	3.91E-05	1.53E-05	-2.44E-05	-9.12E-06	7.06E-06	-2.22E-05	-1.51E-05	2.16E-17	3.30E-17	5.47E-17	-1.02E-05	2.01E-05	9.83E-06	4.94E-05	9.30E-05	0.00014238	-5.01E-06	0.00017562	0.000170612	9.28E-05	-8.79E-05	4.99E-06	0.000252054	-0.000265489	-1.34E-05	6.15E-05	-4.73E-05	1.41E-05	1.61E-05	3.19E-05	4.80E-05	-1.66E-05	2.49E-05	8.27E-06	6.59E-05	-1.18E-05	5.41E-05	1.39E-05	6.19E-05	7.58E-05	4.32E-18	2.32E-18	6.64E-18	6.67E-06	-2.36E-05	-1.70E-05	6.11E-05	-4.04E-05	2.07E-05	3.66E-05	-5.34E-05	-1.68E-05	-3.80E-05	-3.64E-06	-4.17E-05	-2.84E-06	6.74E-05	6.45E-05	2.88E-05	4.48E-06	3.33E-05	2.82E-05	-5.15E-05	-2.33E-05	0.000130038	-0.000228777	-9.87E-05	-3.03E-05	1.41E-05	-1.61E-05	-2.03E-05	1.13E-05	-8.95E-06	-9.16E-19	1.35E-18	4.29E-19	-1.80E-05	-3.26E-05	-5.06E-05	-7.21E-06	-0.000129685	-0.000136898	-4.71E-05	-0.000142016	-0.000189108	-3.43E-05	-2.67E-05	-6.10E-05	-0.000113961	-4.87E-05	-0.000162616	-1.87E-05	-3.83E-05	-5.70E-05	-1.90E-05	-1.80E-05	-3.70E-05	5.45E-05	-1.15E-05	4.30E-05	1
-0.4	-1.73E-06	-5.54E-05	-5.71E-05	-2.49E-05	-3.92E-05	-6.41E-05	1.54E-17	-1.72E-17	-1.73E-18	1.49E-05	9.14E-06	2.40E-05	6.19E-06	-1.17E-05	-5.53E-06	-4.50E-06	2.30E-05	1.85E-05	4.37E-05	1.25E-05	5.63E-05	-3.95E-05	1.02E-05	-2.93E-05	-1.97E-06	-5.13E-06	-7.10E-06	-1.07E-05	1.71E-05	6.44E-06	-5.92E-05	9.72E-05	3.81E-05	2.12E-05	-3.03E-05	-9.08E-06	1.26E-05	-2.77E-05	-1.50E-05	2.10E-17	3.40E-17	5.50E-17	-1.33E-05	2.18E-05	8.50E-06	4.14E-05	0.000106338	0.000147772	-1.81E-05	0.000192823	0.000174728	0.000104901	-9.70E-05	7.94E-06	0.000281435	-0.000296415	-1.50E-05	7.33E-05	-5.65E-05	1.68E-05	1.93E-05	3.62E-05	5.55E-05	-2.07E-05	3.20E-05	1.14E-05	7.18E-05	-1.26E-05	5.92E-05	1.48E-05	6.78E-05	8.26E-05	4.38E-18	2.32E-18	6.70E-18	2.54E-06	-2.47E-05	-2.21E-05	5.40E-05	-3.45E-05	1.95E-05	3.37E-05	-5.49E-05	-2.13E-05	-4.39E-05	-5.06E-06	-4.90E-05	-2.01E-06	7.16E-05	6.96E-05	3.36E-05	2.84E-06	3.64E-05	3.03E-05	-5.42E-05	-2.40E-05	0.000141731	-0.000244496	-0.000102766	-3.78E-05	1.95E-05	-1.83E-05	-2.77E-05	1.59E-05	-1.18E-05	-9.19E-19	1.39E-18	4.70E-19	-2.00E-05	-3.34E-05	-5.34E-05	-4.46E-06	-0.000139105	-0.000143569	-5.28E-05	-0.000146248	-0.000199027	-4.36E-05	-2.56E-05	-6.92E-05	-0.000133849	-4.82E-05	-0.000182058	-2.58E-05	-3.82E-05	-6.40E-05	-2.25E-05	-2.07E-05	-4.32E-05	6.04E-05	-1.42E-05	4.62E-05	1
-0.36	-2.50E-06	-5.58E-05	-5.83E-05	-2.77E-05	-3.90E-05	-6.67E-05	1.32E-17	-1.68E-17	-3.66E-18	1.96E-05	8.20E-06	2.78E-05	1.54E-05	-2.27E-05	-7.30E-06	1.01E-06	1.95E-05	2.05E-05	4.84E-05	1.51E-05	6.36E-05	-4.24E-05	1.31E-05	-2.93E-05	-3.94E-06	-6.95E-07	-4.63E-06	-1.24E-05	1.85E-05	6.16E-06	-6.73E-05	0.000104032	3.68E-05	2.70E-05	-3.60E-05	-9.07E-06	1.81E-05	-3.31E-05	-1.50E-05	2.01E-17	3.48E-17	5.49E-17	-1.65E-05	2.36E-05	7.08E-06	3.28E-05	0.000119545	0.000152351	-3.18E-05	0.000209662	0.000177822	0.000116414	-0.000105622	1.08E-05	0.000309551	-0.000326096	-1.65E-05	8.47E-05	-6.54E-05	1.93E-05	2.24E-05	4.02E-05	6.27E-05	-2.47E-05	3.91E-05	1.44E-05	7.74E-05	-1.33E-05	6.41E-05	1.56E-05	7.36E-05	8.92E-05	4.41E-18	2.29E-18	6.70E-18	-1.60E-06	-2.57E-05	-2.73E-05	4.68E-05	-2.86E-05	1.82E-05	3.08E-05	-5.64E-05	-2.57E-05	-4.97E-05	-6.43E-06	-5.61E-05	-1.20E-06	7.57E-05	7.45E-05	3.82E-05	1.24E-06	3.94E-05	3.22E-05	-5.67E-05	-2.45E-05	0.000152774	-0.000259255	-0.000106481	-4.52E-05	2.47E-05	-2.05E-05	-3.48E-05	2.02E-05	-1.46E-05	-9.11E-19	1.42E-18	5.05E-19	-2.19E-05	-3.40E-05	-5.59E-05	-1.95E-06	-0.000147875	-0.000149823	-5.87E-05	-0.000149859	-0.000208514	-5.26E-05	-2.46E-05	-7.72E-05	-0.000152845	-4.79E-05	-0.000200695	-3.25E-05	-3.83E-05	-7.08E-05	-2.58E-05	-2.33E-05	-4.91E-05	6.61E-05	-1.68E-05	4.93E-05	1
-0.32	-3.25E-06	-5.60E-05	-5.93E-05	-3.03E-05	-3.87E-05	-6.91E-05	1.06E-17	-1.63E-17	-5.71E-18	2.42E-05	7.19E-06	3.14E-05	2.46E-05	-3.38E-05	-9.17E-06	6.50E-06	1.59E-05	2.24E-05	5.28E-05	1.77E-05	7.06E-05	-4.52E-05	1.61E-05	-2.90E-05	-6.01E-06	3.92E-06	-2.09E-06	-1.42E-05	2.00E-05	5.80E-06	-7.53E-05	0.000110475	3.52E-05	3.26E-05	-4.17E-05	-9.08E-06	2.35E-05	-3.84E-05	-1.49E-05	1.89E-17	3.53E-17	5.41E-17	-1.98E-05	2.54E-05	5.58E-06	2.35E-05	0.000132561	0.000156082	-4.62E-05	0.000226064	0.000179869	0.000127313	-0.000113784	1.35E-05	0.000336224	-0.000354349	-1.81E-05	9.57E-05	-7.40E-05	2.17E-05	2.54E-05	4.42E-05	6.96E-05	-2.88E-05	4.62E-05	1.74E-05	8.26E-05	-1.38E-05	6.87E-05	1.61E-05	7.93E-05	9.53E-05	4.41E-18	2.23E-18	6.64E-18	-5.73E-06	-2.66E-05	-3.24E-05	3.95E-05	-2.29E-05	1.66E-05	2.78E-05	-5.79E-05	-3.01E-05	-5.53E-05	-7.76E-06	-6.30E-05	-4.08E-07	7.95E-05	7.91E-05	4.26E-05	-3.04E-07	4.23E-05	3.39E-05	-5.90E-05	-2.51E-05	0.000163097	-0.00027298	-0.000109883	-5.23E-05	2.95E-05	-2.28E-05	-4.17E-05	2.43E-05	-1.74E-05	-8.92E-19	1.43E-18	5.33E-19	-2.39E-05	-3.45E-05	-5.84E-05	2.94E-07	-0.000155943	-0.000155649	-6.47E-05	-0.000152842	-0.00021756	-6.12E-05	-2.37E-05	-8.49E-05	-0.000170794	-4.76E-05	-0.000218399	-3.89E-05	-3.86E-05	-7.75E-05	-2.90E-05	-2.58E-05	-5.48E-05	7.16E-05	-1.93E-05	5.23E-05	1
-0.28	-3.95E-06	-5.61E-05	-6.00E-05	-3.29E-05	-3.82E-05	-7.11E-05	7.80E-18	-1.57E-17	-7.86E-18	2.87E-05	6.10E-06	3.48E-05	3.39E-05	-4.50E-05	-1.11E-05	1.19E-05	1.21E-05	2.40E-05	5.70E-05	2.03E-05	7.73E-05	-4.79E-05	1.93E-05	-2.86E-05	-8.18E-06	8.70E-06	5.15E-07	-1.60E-05	2.14E-05	5.36E-06	-8.32E-05	0.000116538	3.33E-05	3.81E-05	-4.73E-05	-9.12E-06	2.88E-05	-4.37E-05	-1.49E-05	1.74E-17	3.55E-17	5.29E-17	-2.32E-05	2.72E-05	4.00E-06	1.36E-05	0.000145324	0.000158936	-6.11E-05	0.000241965	0.000180852	0.000137534	-0.000121404	1.61E-05	0.0003613	-0.000381007	-1.97E-05	0.000106245	-8.23E-05	2.40E-05	2.82E-05	4.79E-05	7.61E-05	-3.28E-05	5.30E-05	2.03E-05	8.73E-05	-1.42E-05	7.31E-05	1.63E-05	8.48E-05	0.000101121	4.38E-18	2.13E-18	6.51E-18	-9.80E-06	-2.75E-05	-3.73E-05	3.21E-05	-1.73E-05	1.48E-05	2.49E-05	-5.94E-05	-3.45E-05	-6.07E-05	-9.02E-06	-6.97E-05	3.38E-07	8.31E-05	8.35E-05	4.69E-05	-1.78E-06	4.51E-05	3.54E-05	-6.09E-05	-2.55E-05	0.000172639	-0.000285606	-0.000112968	-5.91E-05	3.41E-05	-2.50E-05	-4.82E-05	2.81E-05	-2.02E-05	-8.64E-19	1.42E-18	5.53E-19	-2.57E-05	-3.49E-05	-6.06E-05	2.22E-06	-0.00016326	-0.000161037	-7.10E-05	-0.000155196	-0.000226155	-6.93E-05	-2.30E-05	-9.23E-05	-0.000187556	-4.75E-05	-0.000235048	-4.48E-05	-3.90E-05	-8.38E-05	-3.21E-05	-2.82E-05	-6.02E-05	7.67E-05	-2.15E-05	5.52E-05	1
-0.24	-4.62E-06	-5.60E-05	-6.06E-05	-3.53E-05	-3.76E-05	-7.29E-05	4.69E-18	-1.48E-17	-1.01E-17	3.31E-05	4.95E-06	3.80E-05	4.30E-05	-5.62E-05	-1.32E-05	1.73E-05	8.17E-06	2.54E-05	6.07E-05	2.29E-05	8.36E-05	-5.05E-05	2.25E-05	-2.80E-05	-1.04E-05	1.36E-05	3.16E-06	-1.79E-05	2.27E-05	4.83E-06	-9.11E-05	0.000122194	3.11E-05	4.34E-05	-5.26E-05	-9.19E-06	3.38E-05	-4.87E-05	-1.49E-05	1.57E-17	3.54E-17	5.11E-17	-2.66E-05	2.90E-05	2.36E-06	3.11E-06	0.000157776	0.000160887	-7.65E-05	0.000257301	0.000180761	0.00014702	-0.000128445	1.86E-05	0.000384642	-0.000405926	-2.13E-05	0.000116211	-9.02E-05	2.60E-05	3.08E-05	5.14E-05	8.22E-05	-3.67E-05	5.98E-05	2.31E-05	9.15E-05	-1.43E-05	7.72E-05	1.64E-05	9.01E-05	0.000106486	4.31E-18	2.01E-18	6.32E-18	-1.38E-05	-2.83E-05	-4.21E-05	2.48E-05	-1.20E-05	1.28E-05	2.21E-05	-6.09E-05	-3.88E-05	-6.58E-05	-1.02E-05	-7.60E-05	1.03E-06	8.65E-05	8.75E-05	5.09E-05	-3.16E-06	4.77E-05	3.67E-05	-6.26E-05	-2.59E-05	0.000181344	-0.00029708	-0.000115736	-6.55E-05	3.83E-05	-2.72E-05	-5.44E-05	3.16E-05	-2.28E-05	-8.25E-19	1.39E-18	5.67E-19	-2.76E-05	-3.51E-05	-6.27E-05	3.80E-06	-0.000169786	-0.000165983	-7.74E-05	-0.00015692	-0.000234293	-7.68E-05	-2.24E-05	-9.92E-05	-0.000203006	-4.75E-05	-0.000250535	-5.01E-05	-3.98E-05	-8.99E-05	-3.50E-05	-3.03E-05	-6.53E-05	8.16E-05	-2.36E-05	5.80E-05	1
-0.2	-5.24E-06	-5.58E-05	-6.10E-05	-3.76E-05	-3.68E-05	-7.43E-05	1.34E-18	-1.38E-17	-1.24E-17	3.73E-05	3.74E-06	4.10E-05	5.20E-05	-6.74E-05	-1.53E-05	2.25E-05	4.19E-06	2.66E-05	6.42E-05	2.54E-05	8.96E-05	-5.30E-05	2.58E-05	-2.73E-05	-1.28E-05	1.86E-05	5.83E-06	-1.98E-05	2.41E-05	4.23E-06	-9.87E-05	0.000127422	2.87E-05	4.85E-05	-5.78E-05	-9.30E-06	3.87E-05	-5.37E-05	-1.50E-05	1.38E-17	3.50E-17	4.88E-17	-3.01E-05	3.08E-05	6.71E-07	-7.95E-06	0.000169864	0.000161918	-9.24E-05	0.000272016	0.000179589	0.000155727	-0.000134873	2.09E-05	0.000406136	-0.000428982	-2.28E-05	0.000125574	-9.76E-05	2.79E-05	3.32E-05	5.47E-05	8.79E-05	-4.05E-05	6.63E-05	2.57E-05	9.52E-05	-1.43E-05	8.09E-05	1.61E-05	9.53E-05	0.000111407	4.22E-18	1.85E-18	6.06E-18	-1.77E-05	-2.90E-05	-4.67E-05	1.76E-05	-6.99E-06	1.07E-05	1.93E-05	-6.24E-05	-4.31E-05	-7.07E-05	-1.13E-05	-8.20E-05	1.66E-06	8.96E-05	9.12E-05	5.47E-05	-4.44E-06	5.02E-05	3.77E-05	-6.39E-05	-2.62E-05	0.000189167	-0.000307356	-0.000118189	-7.15E-05	4.21E-05	-2.94E-05	-6.01E-05	3.47E-05	-2.54E-05	-7.75E-19	1.35E-18	5.73E-19	-2.94E-05	-3.52E-05	-6.46E-05	5.01E-06	-0.000175489	-0.000170483	-8.40E-05	-0.000158019	-0.000241969	-8.37E-05	-2.21E-05	-0.00010576	-0.000217035	-4.77E-05	-0.000264761	-5.49E-05	-4.07E-05	-9.56E-05	-3.77E-05	-3.23E-05	-7.00E-05	8.61E-05	-2.54E-05	6.07E-05	1
-0.16	-5.80E-06	-5.54E-05	-6.12E-05	-3.97E-05	-3.58E-05	-7.55E-05	-2.21E-18	-1.25E-17	-1.48E-17	4.13E-05	2.48E-06	4.38E-05	6.09E-05	-7.85E-05	-1.75E-05	2.75E-05	1.39E-07	2.76E-05	6.72E-05	2.79E-05	9.51E-05	-5.54E-05	2.91E-05	-2.63E-05	-1.52E-05	2.37E-05	8.52E-06	-2.18E-05	2.54E-05	3.54E-06	-0.000106162	0.000132203	2.60E-05	5.33E-05	-6.28E-05	-9.43E-06	4.34E-05	-5.84E-05	-1.51E-05	1.16E-17	3.43E-17	4.59E-17	-3.36E-05	3.26E-05	-1.06E-06	-1.95E-05	0.000181538	0.000162016	-0.000108719	0.000286061	0.000177341	0.00016362	-0.000140666	2.30E-05	0.000425691	-0.000450072	-2.44E-05	0.000134294	-0.000104653	2.96E-05	3.54E-05	5.78E-05	9.32E-05	-4.43E-05	7.25E-05	2.83E-05	9.83E-05	-1.40E-05	8.43E-05	1.56E-05	0.00010023	0.000115862	4.09E-18	1.66E-18	5.75E-18	-2.15E-05	-2.97E-05	-5.11E-05	1.06E-05	-2.32E-06	8.31E-06	1.67E-05	-6.39E-05	-4.72E-05	-7.53E-05	-1.23E-05	-8.76E-05	2.21E-06	9.24E-05	9.46E-05	5.81E-05	-5.60E-06	5.25E-05	3.85E-05	-6.50E-05	-2.65E-05	0.000196071	-0.000316401	-0.00012033	-7.71E-05	4.54E-05	-3.16E-05	-6.54E-05	3.74E-05	-2.79E-05	-7.15E-19	1.29E-18	5.72E-19	-3.11E-05	-3.52E-05	-6.63E-05	5.81E-06	-0.000180342	-0.000174536	-9.07E-05	-0.000158501	-0.000249182	-8.99E-05	-2.19E-05	-0.000111811	-0.000229554	-4.81E-05	-0.000277642	-5.91E-05	-4.20E-05	-0.000101061	-4.02E-05	-3.42E-05	-7.44E-05	9.03E-05	-2.69E-05	6.33E-05	1
-0.12	-6.30E-06	-5.49E-05	-6.12E-05	-4.17E-05	-3.47E-05	-7.64E-05	-5.95E-18	-1.12E-17	-1.71E-17	4.51E-05	1.17E-06	4.63E-05	6.96E-05	-8.94E-05	-1.98E-05	3.24E-05	-3.96E-06	2.84E-05	6.99E-05	3.03E-05	0.000100214	-5.77E-05	3.24E-05	-2.52E-05	-1.77E-05	2.89E-05	1.12E-05	-2.39E-05	2.67E-05	2.77E-06	-0.000113421	0.000136521	2.31E-05	5.79E-05	-6.75E-05	-9.58E-06	4.78E-05	-6.30E-05	-1.52E-05	9.25E-18	3.33E-17	4.26E-17	-3.72E-05	3.43E-05	-2.82E-06	-3.16E-05	0.000192755	0.000161174	-0.000125363	0.000299388	0.000174025	0.000170677	-0.000145809	2.49E-05	0.000443241	-0.000469118	-2.59E-05	0.000142342	-0.000111187	3.12E-05	3.74E-05	6.05E-05	9.80E-05	-4.79E-05	7.85E-05	3.06E-05	0.000100818	-1.35E-05	8.73E-05	1.48E-05	0.000105	0.000119831	3.94E-18	1.44E-18	5.38E-18	-2.51E-05	-3.02E-05	-5.53E-05	3.82E-06	1.96E-06	5.78E-06	1.42E-05	-6.54E-05	-5.13E-05	-7.96E-05	-1.32E-05	-9.29E-05	2.68E-06	9.50E-05	9.76E-05	6.13E-05	-6.64E-06	5.47E-05	3.91E-05	-6.57E-05	-2.66E-05	0.000202029	-0.000324192	-0.000122163	-8.21E-05	4.83E-05	-3.38E-05	-7.01E-05	3.98E-05	-3.04E-05	-6.46E-19	1.21E-18	5.64E-19	-3.28E-05	-3.51E-05	-6.79E-05	6.18E-06	-0.000184328	-0.000178145	-9.76E-05	-0.000158378	-0.000255931	-9.54E-05	-2.19E-05	-0.00011736	-0.000240493	-4.86E-05	-0.000289107	-6.27E-05	-4.34E-05	-0.000106111	-4.25E-05	-3.58E-05	-7.83E-05	9.41E-05	-2.82E-05	6.58E-05	1
-0.08	-6.74E-06	-5.43E-05	-6.10E-05	-4.34E-05	-3.35E-05	-7.69E-05	-9.83E-18	-9.66E-18	-1.95E-17	4.87E-05	-1.84E-07	4.85E-05	7.82E-05	-0.000100261	-2.21E-05	3.71E-05	-8.09E-06	2.90E-05	7.22E-05	3.26E-05	0.000104845	-5.98E-05	3.58E-05	-2.40E-05	-2.02E-05	3.41E-05	1.39E-05	-2.60E-05	2.79E-05	1.92E-06	-0.000120456	0.000140365	1.99E-05	6.22E-05	-7.20E-05	-9.76E-06	5.20E-05	-6.73E-05	-1.53E-05	6.69E-18	3.21E-17	3.88E-17	-4.07E-05	3.61E-05	-4.60E-06	-4.41E-05	0.000203475	0.000159392	-0.000142303	0.000311959	0.000169656	0.000176887	-0.000150292	2.66E-05	0.000458745	-0.000486069	-2.73E-05	0.0001497	-0.000117226	3.25E-05	3.92E-05	6.30E-05	0.000102254	-5.14E-05	8.42E-05	3.28E-05	0.000102764	-1.28E-05	8.99E-05	1.37E-05	0.00010957	0.000123304	3.76E-18	1.20E-18	4.95E-18	-2.86E-05	-3.07E-05	-5.93E-05	-2.74E-06	5.83E-06	3.09E-06	1.18E-05	-6.70E-05	-5.52E-05	-8.36E-05	-1.41E-05	-9.77E-05	3.05E-06	9.73E-05	0.000100308	6.42E-05	-7.55E-06	5.66E-05	3.94E-05	-6.62E-05	-2.68E-05	0.000207023	-0.000330718	-0.000123695	-8.67E-05	5.08E-05	-3.59E-05	-7.44E-05	4.17E-05	-3.27E-05	-5.67E-19	1.12E-18	5.50E-19	-3.44E-05	-3.49E-05	-6.93E-05	6.12E-06	-0.000187437	-0.000181314	-0.000104554	-0.000157665	-0.000262219	-0.000100264	-2.21E-05	-0.00012238	-0.000249801	-4.93E-05	-0.000299101	-6.56E-05	-4.52E-05	-0.000110778	-4.46E-05	-3.72E-05	-8.18E-05	9.75E-05	-2.93E-05	6.82E-05	1
-0.04	-7.11E-06	-5.36E-05	-6.07E-05	-4.50E-05	-3.21E-05	-7.71E-05	-1.38E-17	-8.01E-18	-2.18E-17	5.21E-05	-1.58E-06	5.05E-05	8.64E-05	-0.000110897	-2.45E-05	4.15E-05	-1.22E-05	2.93E-05	7.41E-05	3.49E-05	0.000109005	-6.18E-05	3.92E-05	-2.26E-05	-2.28E-05	3.93E-05	1.65E-05	-2.81E-05	2.91E-05	9.89E-07	-0.000127254	0.000143728	1.65E-05	6.62E-05	-7.62E-05	-9.95E-06	5.60E-05	-7.15E-05	-1.55E-05	3.96E-18	3.06E-17	3.45E-17	-4.43E-05	3.79E-05	-6.40E-06	-5.70E-05	0.000213664	0.000156675	-0.000159485	0.000323742	0.000164258	0.00018225	-0.000154117	2.81E-05	0.000472186	-0.000500893	-2.87E-05	0.000156361	-0.000122764	3.36E-05	4.08E-05	6.53E-05	0.000106038	-5.47E-05	8.96E-05	3.49E-05	0.000104105	-1.19E-05	9.22E-05	1.23E-05	0.000113939	0.00012627	3.55E-18	9.27E-19	4.48E-18	-3.19E-05	-3.12E-05	-6.30E-05	-9.00E-06	9.25E-06	2.47E-07	9.66E-06	-6.87E-05	-5.90E-05	-8.73E-05	-1.48E-05	-0.000102098	3.31E-06	9.93E-05	0.000102598	6.67E-05	-8.32E-06	5.84E-05	3.94E-05	-6.63E-05	-2.69E-05	0.000211046	-0.00033598	-0.000124933	-9.08E-05	5.27E-05	-3.81E-05	-7.80E-05	4.32E-05	-3.49E-05	-4.80E-19	1.01E-18	5.30E-19	-3.60E-05	-3.45E-05	-7.05E-05	5.62E-06	-0.000189669	-0.000184054	-0.000111671	-0.000156379	-0.000268051	-0.000104361	-2.25E-05	-0.00012685	-0.000257449	-5.01E-05	-0.00030758	-6.79E-05	-4.72E-05	-0.000115047	-4.65E-05	-3.84E-05	-8.49E-05	0.000100478	-3.00E-05	7.05E-05	1
0	-7.41E-06	-5.27E-05	-6.02E-05	-4.64E-05	-3.07E-05	-7.71E-05	-1.79E-17	-6.24E-18	-2.41E-17	5.53E-05	-3.01E-06	5.23E-05	9.45E-05	-0.000121326	-2.68E-05	4.58E-05	-1.64E-05	2.94E-05	7.57E-05	3.70E-05	0.000112691	-6.36E-05	4.26E-05	-2.10E-05	-2.54E-05	4.45E-05	1.91E-05	-3.03E-05	3.02E-05	-1.74E-08	-0.000133803	0.000146606	1.28E-05	7.00E-05	-8.02E-05	-1.02E-05	5.97E-05	-7.54E-05	-1.57E-05	1.10E-18	2.88E-17	2.99E-17	-4.78E-05	3.96E-05	-8.19E-06	-7.03E-05	0.000223294	0.000153034	-0.000176852	0.00033471	0.000157859	0.00018678	-0.000157293	2.95E-05	0.000483573	-0.000513588	-3.00E-05	0.000162328	-0.000127798	3.45E-05	4.21E-05	6.72E-05	0.000109315	-5.79E-05	9.46E-05	3.67E-05	0.000104835	-1.08E-05	9.41E-05	1.06E-05	0.00011811	0.000128727	3.32E-18	6.38E-19	3.96E-18	-3.50E-05	-3.16E-05	-6.65E-05	-1.49E-05	1.22E-05	-2.74E-06	7.68E-06	-7.04E-05	-6.27E-05	-9.07E-05	-1.54E-05	-0.000106067	3.44E-06	0.000101065	0.00010451	6.90E-05	-8.95E-06	6.00E-05	3.91E-05	-6.61E-05	-2.69E-05	0.000214101	-0.000339988	-0.000125887	-9.43E-05	5.42E-05	-4.01E-05	-8.12E-05	4.43E-05	-3.69E-05	-3.85E-19	8.89E-19	5.05E-19	-3.74E-05	-3.41E-05	-7.15E-05	4.66E-06	-0.00019103	-0.000186373	-0.00011889	-0.000154544	-0.000273434	-0.000107731	-2.30E-05	-0.000130755	-0.000263427	-5.11E-05	-0.000314519	-6.95E-05	-4.94E-05	-0.000118908	-4.82E-05	-3.93E-05	-8.75E-05	0.00010306	-3.05E-05	7.26E-05	1
0.04	-7.64E-06	-5.18E-05	-5.95E-05	-4.76E-05	-2.91E-05	-7.67E-05	-2.19E-17	-4.37E-18	-2.63E-17	5.83E-05	-4.46E-06	5.38E-05	0.000102322	-0.000131531	-2.92E-05	4.99E-05	-2.05E-05	2.93E-05	7.68E-05	3.91E-05	0.000115904	-6.53E-05	4.60E-05	-1.93E-05	-2.80E-05	4.97E-05	2.17E-05	-3.25E-05	3.14E-05	-1.10E-06	-0.000140096	0.000149	8.90E-06	7.35E-05	-8.39E-05	-1.04E-05	6.32E-05	-7.91E-05	-1.59E-05	-1.87E-18	2.67E-17	2.49E-17	-5.13E-05	4.13E-05	-9.97E-06	-8.39E-05	0.000232343	0.000148488	-0.000194349	0.000344843	0.000150494	0.000190499	-0.000159835	3.07E-05	0.000492941	-0.000524175	-3.12E-05	0.000167615	-0.000132338	3.53E-05	4.32E-05	6.89E-05	0.00011209	-6.09E-05	9.93E-05	3.84E-05	0.000104953	-9.38E-06	9.56E-05	8.59E-06	0.000122087	0.000130675	3.07E-18	3.30E-19	3.40E-18	-3.79E-05	-3.19E-05	-6.98E-05	-2.06E-05	1.47E-05	-5.86E-06	5.89E-06	-7.21E-05	-6.62E-05	-9.37E-05	-1.59E-05	-0.000109603	3.46E-06	0.000102584	0.000106039	7.08E-05	-9.42E-06	6.14E-05	3.86E-05	-6.56E-05	-2.70E-05	0.000216199	-0.000342767	-0.000126567	-9.73E-05	5.52E-05	-4.22E-05	-8.37E-05	4.49E-05	-3.89E-05	-2.82E-19	7.56E-19	4.75E-19	-3.89E-05	-3.35E-05	-7.24E-05	3.25E-06	-0.000191536	-0.000188286	-0.000126193	-0.000152185	-0.000278378	-0.000110382	-2.37E-05	-0.000134084	-0.000267747	-5.22E-05	-0.000319905	-7.05E-05	-5.19E-05	-0.000122356	-4.96E-05	-4.01E-05	-8.97E-05	0.000105223	-3.06E-05	7.46E-05	1
0.08	-7.80E-06	-5.08E-05	-5.86E-05	-4.86E-05	-2.75E-05	-7.61E-05	-2.59E-17	-2.42E-18	-2.83E-17	6.10E-05	-5.94E-06	5.51E-05	0.000109919	-0.0001415	-3.16E-05	5.37E-05	-2.47E-05	2.91E-05	7.76E-05	4.10E-05	0.000118651	-6.68E-05	4.93E-05	-1.75E-05	-3.06E-05	5.48E-05	2.42E-05	-3.47E-05	3.24E-05	-2.25E-06	-0.000146128	0.000150914	4.79E-06	7.68E-05	-8.73E-05	-1.05E-05	6.65E-05	-8.26E-05	-1.61E-05	-4.92E-18	2.45E-17	1.96E-17	-5.47E-05	4.30E-05	-1.17E-05	-9.77E-05	0.000240793	0.000143059	-0.000211921	0.000354128	0.000142207	0.000193444	-0.000161769	3.17E-05	0.000500346	-0.000532698	-3.24E-05	0.000172247	-0.000136398	3.58E-05	4.41E-05	7.02E-05	0.000114372	-6.38E-05	0.000103639	3.98E-05	0.000104464	-7.77E-06	9.67E-05	6.24E-06	0.000125877	0.000132121	2.80E-18	7.25E-21	2.81E-18	-4.06E-05	-3.21E-05	-7.28E-05	-2.58E-05	1.67E-05	-9.10E-06	4.31E-06	-7.39E-05	-6.96E-05	-9.65E-05	-1.62E-05	-0.000112711	3.33E-06	0.000103856	0.000107186	7.23E-05	-9.75E-06	6.26E-05	3.79E-05	-6.48E-05	-2.69E-05	0.000217363	-0.00034435	-0.000126986	-9.98E-05	5.57E-05	-4.41E-05	-8.58E-05	4.51E-05	-4.07E-05	-1.73E-19	6.13E-19	4.40E-19	-4.02E-05	-3.29E-05	-7.31E-05	1.40E-06	-0.000191209	-0.000189808	-0.000133565	-0.000149328	-0.000282893	-0.000112333	-2.45E-05	-0.000136834	-0.000270438	-5.33E-05	-0.000323741	-7.08E-05	-5.46E-05	-0.000125389	-5.09E-05	-4.06E-05	-9.15E-05	0.000106965	-3.05E-05	7.65E-05	1
0.12	-7.88E-06	-4.98E-05	-5.77E-05	-4.93E-05	-2.58E-05	-7.51E-05	-2.99E-17	-3.94E-19	-3.03E-17	6.35E-05	-7.45E-06	5.61E-05	0.000117296	-0.000151228	-3.39E-05	5.74E-05	-2.88E-05	2.86E-05	7.81E-05	4.29E-05	0.000120945	-6.82E-05	5.26E-05	-1.56E-05	-3.32E-05	5.98E-05	2.67E-05	-3.69E-05	3.34E-05	-3.47E-06	-0.000151899	0.000152355	4.57E-07	7.98E-05	-9.05E-05	-1.07E-05	6.96E-05	-8.59E-05	-1.63E-05	-8.01E-18	2.20E-17	1.40E-17	-5.81E-05	4.46E-05	-1.35E-05	-0.000111854	0.000248633	0.000136778	-0.000229514	0.000362557	0.000133043	0.000195659	-0.000163125	3.25E-05	0.000505871	-0.000539225	-3.34E-05	0.000176257	-0.00014	3.63E-05	4.49E-05	7.13E-05	0.000116177	-6.66E-05	0.000107625	4.11E-05	0.000103378	-5.93E-06	9.74E-05	3.58E-06	0.00012949	0.000133075	2.52E-18	-3.27E-19	2.19E-18	-4.32E-05	-3.23E-05	-7.55E-05	-3.07E-05	1.82E-05	-1.24E-05	2.92E-06	-7.58E-05	-7.28E-05	-9.89E-05	-1.65E-05	-0.000115398	3.06E-06	0.000104893	0.000107953	7.35E-05	-9.94E-06	6.36E-05	3.69E-05	-6.38E-05	-2.69E-05	0.000217624	-0.000344781	-0.000127157	-0.000101727	5.57E-05	-4.61E-05	-8.72E-05	4.48E-05	-4.24E-05	-5.85E-20	4.62E-19	4.03E-19	-4.15E-05	-3.22E-05	-7.37E-05	-8.79E-07	-0.00019008	-0.000190959	-0.000140988	-0.000146006	-0.000286993	-0.000113613	-2.54E-05	-0.000139006	-0.000271554	-5.45E-05	-0.000326045	-7.06E-05	-5.74E-05	-0.00012801	-5.19E-05	-4.10E-05	-9.29E-05	0.000108287	-3.01E-05	7.82E-05	1
0.16	-7.90E-06	-4.86E-05	-5.65E-05	-4.99E-05	-2.41E-05	-7.40E-05	-3.37E-17	1.67E-18	-3.20E-17	6.59E-05	-8.97E-06	5.69E-05	0.00012447	-0.000160715	-3.62E-05	6.09E-05	-3.29E-05	2.80E-05	7.82E-05	4.46E-05	0.000122805	-6.94E-05	5.58E-05	-1.35E-05	-3.58E-05	6.48E-05	2.90E-05	-3.92E-05	3.44E-05	-4.76E-06	-0.000157409	0.000153334	-4.07E-06	8.27E-05	-9.35E-05	-1.09E-05	7.25E-05	-8.90E-05	-1.65E-05	-1.11E-17	1.93E-17	8.21E-18	-6.14E-05	4.62E-05	-1.52E-05	-0.000126176	0.000255856	0.00012968	-0.000247073	0.000370128	0.000123056	0.000197201	-0.000163942	3.33E-05	0.000509619	-0.000543848	-3.42E-05	0.000179689	-0.000143172	3.65E-05	4.54E-05	7.21E-05	0.000117525	-6.91E-05	0.000111257	4.21E-05	0.000101709	-3.87E-06	9.78E-05	6.14E-07	0.000132938	0.000133551	2.22E-18	-6.68E-19	1.56E-18	-4.55E-05	-3.25E-05	-7.80E-05	-3.52E-05	1.93E-05	-1.59E-05	1.73E-06	-7.77E-05	-7.60E-05	-0.000101011	-1.67E-05	-0.000117679	2.64E-06	0.000105708	0.000108345	7.44E-05	-9.98E-06	6.44E-05	3.56E-05	-6.24E-05	-2.68E-05	0.000217023	-0.000344117	-0.000127094	-0.000103156	5.52E-05	-4.79E-05	-8.82E-05	4.42E-05	-4.40E-05	6.03E-20	3.04E-19	3.64E-19	-4.27E-05	-3.13E-05	-7.41E-05	-3.57E-06	-0.000188187	-0.00019176	-0.000148443	-0.000142251	-0.000290694	-0.000114259	-2.63E-05	-0.000140606	-0.000271163	-5.57E-05	-0.000326848	-6.98E-05	-6.04E-05	-0.000130226	-5.28E-05	-4.11E-05	-9.39E-05	0.000109194	-2.94E-05	7.98E-05	1
0.2	-7.84E-06	-4.75E-05	-5.53E-05	-5.02E-05	-2.23E-05	-7.25E-05	-3.73E-17	3.76E-18	-3.35E-17	6.81E-05	-1.05E-05	5.76E-05	0.000131461	-0.000169967	-3.85E-05	6.42E-05	-3.69E-05	2.73E-05	7.80E-05	4.62E-05	0.000124253	-7.04E-05	5.90E-05	-1.14E-05	-3.83E-05	6.97E-05	3.13E-05	-4.14E-05	3.53E-05	-6.10E-06	-0.000162665	0.000153866	-8.80E-06	8.53E-05	-9.63E-05	-1.09E-05	7.53E-05	-9.19E-05	-1.66E-05	-1.42E-17	1.65E-17	2.28E-18	-6.46E-05	4.78E-05	-1.68E-05	-0.000140658	0.000262462	0.000121804	-0.000264545	0.000376847	0.000112302	0.000198135	-0.000164265	3.39E-05	0.000511713	-0.000546678	-3.50E-05	0.000182596	-0.000145951	3.66E-05	4.58E-05	7.27E-05	0.000118443	-7.16E-05	0.000114541	4.30E-05	9.95E-05	-1.59E-06	9.79E-05	-2.66E-06	0.000136234	0.00013357	1.92E-18	-1.01E-18	9.09E-19	-4.77E-05	-3.26E-05	-8.03E-05	-3.94E-05	2.00E-05	-1.94E-05	7.27E-07	-7.97E-05	-7.89E-05	-0.000102852	-1.67E-05	-0.000119574	2.06E-06	0.000106313	0.000108369	7.49E-05	-9.89E-06	6.50E-05	3.41E-05	-6.09E-05	-2.67E-05	0.000215607	-0.000342421	-0.000126813	-0.000104093	5.44E-05	-4.97E-05	-8.86E-05	4.31E-05	-4.55E-05	1.82E-19	1.41E-19	3.23E-19	-4.39E-05	-3.05E-05	-7.43E-05	-6.66E-06	-0.000185575	-0.000192232	-0.000155914	-0.000138099	-0.000294013	-0.00011432	-2.73E-05	-0.000141645	-0.000269353	-5.68E-05	-0.000326197	-6.85E-05	-6.35E-05	-0.000132046	-5.35E-05	-4.10E-05	-9.45E-05	0.000109693	-2.85E-05	8.12E-05	1
0.24	-7.71E-06	-4.62E-05	-5.39E-05	-5.04E-05	-2.04E-05	-7.08E-05	-4.07E-17	5.85E-18	-3.48E-17	7.01E-05	-1.20E-05	5.80E-05	0.000138298	-0.000178994	-4.07E-05	6.73E-05	-4.09E-05	2.64E-05	7.76E-05	4.77E-05	0.00012532	-7.13E-05	6.21E-05	-9.14E-06	-4.08E-05	7.44E-05	3.35E-05	-4.37E-05	3.62E-05	-7.50E-06	-0.000167673	0.000153965	-1.37E-05	8.79E-05	-9.89E-05	-1.10E-05	7.79E-05	-9.46E-05	-1.67E-05	-1.72E-17	1.35E-17	-3.74E-18	-6.77E-05	4.93E-05	-1.84E-05	-0.000155259	0.000268455	0.000113196	-0.000281877	0.000382722	0.000100844	0.000198533	-0.000164145	3.44E-05	0.000512297	-0.000547845	-3.55E-05	0.000185036	-0.000148378	3.67E-05	4.60E-05	7.30E-05	0.000118964	-7.38E-05	0.000117486	4.37E-05	9.67E-05	8.93E-07	9.76E-05	-6.24E-06	0.000139396	0.000133154	1.61E-18	-1.35E-18	2.58E-19	-4.97E-05	-3.26E-05	-8.23E-05	-4.32E-05	2.02E-05	-2.30E-05	-9.35E-08	-8.17E-05	-8.18E-05	-0.000104431	-1.67E-05	-0.000121107	1.31E-06	0.000106726	0.000108036	7.51E-05	-9.67E-06	6.54E-05	3.25E-05	-5.91E-05	-2.66E-05	0.000213434	-0.000339766	-0.000126332	-0.000104566	5.31E-05	-5.15E-05	-8.86E-05	4.17E-05	-4.68E-05	3.07E-19	-2.40E-20	2.83E-19	-4.50E-05	-2.95E-05	-7.45E-05	-1.01E-05	-0.000182296	-0.000192402	-0.000163379	-0.000133588	-0.000296967	-0.000113849	-2.83E-05	-0.00014214	-0.000266229	-5.79E-05	-0.00032415	-6.68E-05	-6.67E-05	-0.000133485	-5.40E-05	-4.08E-05	-9.48E-05	0.000109796	-2.73E-05	8.25E-05	1
0.28	-7.52E-06	-4.49E-05	-5.24E-05	-5.03E-05	-1.86E-05	-6.89E-05	-4.38E-17	7.92E-18	-3.59E-17	7.20E-05	-1.36E-05	5.84E-05	0.000145011	-0.000187811	-4.28E-05	7.04E-05	-4.49E-05	2.55E-05	7.69E-05	4.91E-05	0.000126037	-7.20E-05	6.51E-05	-6.83E-06	-4.33E-05	7.90E-05	3.57E-05	-4.60E-05	3.70E-05	-8.95E-06	-0.000172443	0.000153653	-1.88E-05	9.03E-05	-0.000101262	-1.09E-05	8.05E-05	-9.72E-05	-1.68E-05	-2.01E-17	1.04E-17	-9.78E-18	-7.06E-05	5.07E-05	-2.00E-05	-0.000169937	0.000273842	0.000103905	-0.00029902	0.000387767	8.87E-05	0.000198475	-0.000163638	3.48E-05	0.00051153	-0.000547497	-3.60E-05	0.000187078	-0.000150497	3.66E-05	4.61E-05	7.31E-05	0.000119122	-7.60E-05	0.000120106	4.41E-05	9.34E-05	3.58E-06	9.70E-05	-1.01E-05	0.00014244	0.000132329	1.30E-18	-1.69E-18	-3.90E-19	-5.16E-05	-3.26E-05	-8.41E-05	-4.66E-05	2.00E-05	-2.66E-05	-7.47E-07	-8.37E-05	-8.45E-05	-0.000105771	-1.65E-05	-0.000122306	3.96E-07	0.000106962	0.000107359	7.50E-05	-9.33E-06	6.56E-05	3.06E-05	-5.71E-05	-2.65E-05	0.000210567	-0.000336235	-0.000125668	-0.000104604	5.15E-05	-5.32E-05	-8.81E-05	4.00E-05	-4.81E-05	4.32E-19	-1.89E-19	2.43E-19	-4.60E-05	-2.85E-05	-7.45E-05	-1.39E-05	-0.000178405	-0.000192295	-0.000170822	-0.000128757	-0.000299578	-0.00011291	-2.92E-05	-0.000142113	-0.000261911	-5.89E-05	-0.000320776	-6.46E-05	-7.00E-05	-0.00013456	-5.44E-05	-4.04E-05	-9.47E-05	0.000109514	-2.58E-05	8.37E-05	1
0.32	-7.27E-06	-4.36E-05	-5.09E-05	-5.01E-05	-1.68E-05	-6.68E-05	-4.66E-17	9.95E-18	-3.66E-17	7.38E-05	-1.51E-05	5.86E-05	0.000151636	-0.00019644	-4.48E-05	7.33E-05	-4.88E-05	2.45E-05	7.61E-05	5.04E-05	0.00012644	-7.25E-05	6.80E-05	-4.46E-06	-4.57E-05	8.34E-05	3.77E-05	-4.82E-05	3.78E-05	-1.05E-05	-0.000176987	0.00015295	-2.40E-05	9.27E-05	-0.000103507	-1.08E-05	8.30E-05	-9.97E-05	-1.67E-05	-2.29E-17	7.16E-18	-1.58E-17	-7.35E-05	5.21E-05	-2.14E-05	-0.000184653	0.000278638	9.40E-05	-0.000315922	0.000392002	7.61E-05	0.000198049	-0.000162803	3.52E-05	0.000509584	-0.000545798	-3.62E-05	0.000188793	-0.000152361	3.64E-05	4.61E-05	7.29E-05	0.000118959	-7.80E-05	0.000122417	4.45E-05	8.97E-05	6.46E-06	9.61E-05	-1.43E-05	0.000145386	0.000131126	9.93E-19	-2.02E-18	-1.03E-18	-5.33E-05	-3.25E-05	-8.58E-05	-4.98E-05	1.95E-05	-3.03E-05	-1.25E-06	-8.58E-05	-8.71E-05	-0.000106895	-1.63E-05	-0.000123204	-6.90E-07	0.000107042	0.000106351	7.46E-05	-8.88E-06	6.57E-05	2.85E-05	-5.49E-05	-2.64E-05	0.000207077	-0.000331915	-0.000124839	-0.000104244	4.95E-05	-5.48E-05	-8.73E-05	3.80E-05	-4.93E-05	5.56E-19	-3.52E-19	2.05E-19	-4.70E-05	-2.74E-05	-7.44E-05	-1.80E-05	-0.000173966	-0.00019194	-0.000178222	-0.000123646	-0.000301867	-0.000111571	-3.00E-05	-0.000141588	-0.00025653	-5.96E-05	-0.000316158	-6.21E-05	-7.32E-05	-0.000135293	-5.46E-05	-3.98E-05	-9.44E-05	0.000108863	-2.41E-05	8.47E-05	1
0.36	-6.96E-06	-4.22E-05	-4.92E-05	-4.96E-05	-1.49E-05	-6.45E-05	-4.90E-17	1.19E-17	-3.71E-17	7.54E-05	-1.67E-05	5.87E-05	0.000158215	-0.000204904	-4.67E-05	7.62E-05	-5.27E-05	2.35E-05	7.51E-05	5.15E-05	0.00012657	-7.29E-05	7.08E-05	-2.03E-06	-4.80E-05	8.77E-05	3.97E-05	-5.05E-05	3.85E-05	-1.20E-05	-0.000181318	0.000151878	-2.94E-05	9.50E-05	-0.000105629	-1.06E-05	8.55E-05	-0.000102084	-1.66E-05	-2.56E-17	3.89E-18	-2.17E-17	-7.62E-05	5.33E-05	-2.28E-05	-0.000199367	0.000282857	8.35E-05	-0.000332535	0.000395449	6.29E-05	0.000197344	-0.000161703	3.56E-05	0.000506646	-0.000542924	-3.63E-05	0.000190259	-0.000154023	3.62E-05	4.60E-05	7.26E-05	0.000118518	-7.98E-05	0.000124438	4.46E-05	8.55E-05	9.51E-06	9.50E-05	-1.87E-05	0.000148255	0.000129578	6.88E-19	-2.33E-18	-1.65E-18	-5.49E-05	-3.24E-05	-8.73E-05	-5.27E-05	1.87E-05	-3.40E-05	-1.62E-06	-8.80E-05	-8.96E-05	-0.000107832	-1.60E-05	-0.000123835	-1.95E-06	0.000106983	0.000105031	7.39E-05	-8.32E-06	6.56E-05	2.62E-05	-5.25E-05	-2.63E-05	0.000203037	-0.000326901	-0.000123863	-0.000103526	4.72E-05	-5.63E-05	-8.60E-05	3.56E-05	-5.04E-05	6.79E-19	-5.10E-19	1.69E-19	-4.80E-05	-2.62E-05	-7.42E-05	-2.23E-05	-0.000169043	-0.000191366	-0.00018556	-0.000118297	-0.000303857	-0.000109907	-3.07E-05	-0.000140594	-0.000250233	-6.02E-05	-0.000310386	-5.93E-05	-7.64E-05	-0.000135708	-5.48E-05	-3.91E-05	-9.39E-05	0.000107861	-2.22E-05	8.56E-05	1
0.4	-6.60E-06	-4.08E-05	-4.74E-05	-4.90E-05	-1.31E-05	-6.21E-05	-5.10E-17	1.38E-17	-3.72E-17	7.71E-05	-1.83E-05	5.88E-05	0.000164788	-0.00021323	-4.84E-05	7.90E-05	-5.66E-05	2.24E-05	7.39E-05	5.25E-05	0.000126469	-7.31E-05	7.35E-05	4.40E-07	-5.02E-05	9.18E-05	4.16E-05	-5.27E-05	3.91E-05	-1.36E-05	-0.000185451	0.000150463	-3.50E-05	9.74E-05	-0.000107654	-1.03E-05	8.80E-05	-0.000104374	-1.63E-05	-2.80E-17	5.83E-19	-2.74E-17	-7.87E-05	5.46E-05	-2.41E-05	-0.000214037	0.000286521	7.25E-05	-0.000348813	0.000398135	4.93E-05	0.000196455	-0.000160405	3.60E-05	0.000502909	-0.00053906	-3.62E-05	0.000191556	-0.000155539	3.60E-05	4.58E-05	7.20E-05	0.000117844	-8.16E-05	0.000126191	4.46E-05	8.09E-05	1.27E-05	9.36E-05	-2.33E-05	0.000151066	0.000127719	3.91E-19	-2.63E-18	-2.24E-18	-5.63E-05	-3.23E-05	-8.87E-05	-5.53E-05	1.76E-05	-3.77E-05	-1.87E-06	-9.01E-05	-9.20E-05	-0.000108612	-1.56E-05	-0.000124239	-3.39E-06	0.000106808	0.000103415	7.30E-05	-7.69E-06	6.53E-05	2.38E-05	-5.01E-05	-2.63E-05	0.000198528	-0.00032129	-0.000122762	-0.000102494	4.47E-05	-5.78E-05	-8.45E-05	3.31E-05	-5.14E-05	7.99E-19	-6.62E-19	1.38E-19	-4.89E-05	-2.50E-05	-7.39E-05	-2.69E-05	-0.000163708	-0.000190602	-0.000192818	-0.000112751	-0.00030557	-0.000107997	-3.12E-05	-0.000139164	-0.000243173	-6.04E-05	-0.000303559	-5.64E-05	-7.95E-05	-0.000135829	-5.49E-05	-3.83E-05	-9.32E-05	0.000106527	-2.02E-05	8.64E-05	1
0.44	-6.20E-06	-3.94E-05	-4.56E-05	-4.82E-05	-1.13E-05	-5.95E-05	-5.25E-17	1.55E-17	-3.70E-17	7.87E-05	-1.98E-05	5.89E-05	0.0001714	-0.000221447	-5.00E-05	8.19E-05	-6.04E-05	2.14E-05	7.27E-05	5.34E-05	0.000126181	-7.32E-05	7.61E-05	2.95E-06	-5.23E-05	9.57E-05	4.34E-05	-5.49E-05	3.97E-05	-1.52E-05	-0.0001894	0.000148729	-4.07E-05	9.98E-05	-0.000109613	-9.83E-06	9.06E-05	-0.000106611	-1.60E-05	-3.02E-17	-2.73E-18	-3.29E-17	-8.11E-05	5.57E-05	-2.54E-05	-0.000228625	0.000289652	6.10E-05	-0.000364709	0.000400086	3.54E-05	0.000195479	-0.000158977	3.65E-05	0.000498576	-0.000534402	-3.58E-05	0.000192769	-0.00015697	3.58E-05	4.56E-05	7.14E-05	0.000116985	-8.32E-05	0.000127701	4.45E-05	7.59E-05	1.61E-05	9.20E-05	-2.83E-05	0.000153844	0.000125587	1.06E-19	-2.90E-18	-2.80E-18	-5.78E-05	-3.22E-05	-8.99E-05	-5.77E-05	1.63E-05	-4.14E-05	-2.04E-06	-9.23E-05	-9.44E-05	-0.000109265	-1.52E-05	-0.000124455	-5.01E-06	0.000106536	0.000101524	7.18E-05	-6.98E-06	6.48E-05	2.12E-05	-4.74E-05	-2.62E-05	0.000193634	-0.000315187	-0.000121553	-0.000101193	4.20E-05	-5.92E-05	-8.28E-05	3.04E-05	-5.24E-05	9.15E-19	-8.04E-19	1.11E-19	-4.98E-05	-2.38E-05	-7.36E-05	-3.16E-05	-0.000158031	-0.00018968	-0.000199979	-0.000107052	-0.000307031	-0.000105924	-3.14E-05	-0.000137334	-0.000235512	-6.03E-05	-0.000295786	-5.33E-05	-8.24E-05	-0.000135685	-5.49E-05	-3.74E-05	-9.23E-05	0.000104881	-1.79E-05	8.70E-05	1
0.48	-5.76E-06	-3.79E-05	-4.36E-05	-4.72E-05	-9.51E-06	-5.67E-05	-5.36E-17	1.72E-17	-3.64E-17	8.03E-05	-2.14E-05	5.90E-05	0.000178098	-0.000229589	-5.15E-05	8.47E-05	-6.43E-05	2.05E-05	7.15E-05	5.42E-05	0.000125752	-7.31E-05	7.85E-05	5.48E-06	-5.43E-05	9.94E-05	4.51E-05	-5.71E-05	4.03E-05	-1.68E-05	-0.000193181	0.000146702	-4.65E-05	0.000102301	-0.000111536	-9.23E-06	9.34E-05	-0.000108821	-1.55E-05	-3.21E-17	-6.01E-18	-3.81E-17	-8.33E-05	5.67E-05	-2.65E-05	-0.000243093	0.000292276	4.92E-05	-0.000380182	0.000401336	2.12E-05	0.000194513	-0.000157485	3.70E-05	0.000493849	-0.000529148	-3.53E-05	0.000193981	-0.000158374	3.56E-05	4.54E-05	7.05E-05	0.000115992	-8.48E-05	0.000128994	4.42E-05	7.06E-05	1.96E-05	9.03E-05	-3.34E-05	0.000156608	0.000123222	-1.65E-19	-3.15E-18	-3.31E-18	-5.91E-05	-3.20E-05	-9.11E-05	-5.99E-05	1.48E-05	-4.51E-05	-2.14E-06	-9.45E-05	-9.66E-05	-0.000109825	-1.47E-05	-0.000124527	-6.81E-06	0.000106189	9.94E-05	7.05E-05	-6.21E-06	6.43E-05	1.86E-05	-4.47E-05	-2.62E-05	0.000188438	-0.000308695	-0.000120257	-9.97E-05	3.92E-05	-6.05E-05	-8.08E-05	2.75E-05	-5.33E-05	1.03E-18	-9.36E-19	9.00E-20	-5.06E-05	-2.26E-05	-7.32E-05	-3.65E-05	-0.000152087	-0.00018863	-0.000207024	-0.000101241	-0.000308266	-0.000103773	-3.14E-05	-0.000135141	-0.000227419	-5.98E-05	-0.000287177	-5.01E-05	-8.52E-05	-0.000135307	-5.49E-05	-3.64E-05	-9.13E-05	0.000102943	-1.55E-05	8.74E-05	1
0.52	-5.30E-06	-3.64E-05	-4.17E-05	-4.61E-05	-7.77E-06	-5.39E-05	-5.41E-17	1.86E-17	-3.55E-17	8.20E-05	-2.29E-05	5.91E-05	0.000184929	-0.000237687	-5.28E-05	8.77E-05	-6.81E-05	1.96E-05	7.03E-05	5.50E-05	0.000125229	-7.28E-05	8.08E-05	8.02E-06	-5.62E-05	0.000102907	4.67E-05	-5.92E-05	4.08E-05	-1.84E-05	-0.00019681	0.000144407	-5.24E-05	0.000104963	-0.000113452	-8.49E-06	9.62E-05	-0.000111031	-1.48E-05	-3.37E-17	-9.24E-18	-4.30E-17	-8.53E-05	5.77E-05	-2.76E-05	-0.000257401	0.000294418	3.70E-05	-0.000395188	0.000401914	6.73E-06	0.000193654	-0.000155998	3.77E-05	0.000488935	-0.000523499	-3.46E-05	0.000195277	-0.000159812	3.55E-05	4.53E-05	6.96E-05	0.000114914	-8.63E-05	0.000130097	4.38E-05	6.51E-05	2.32E-05	8.83E-05	-3.87E-05	0.00015938	0.000120662	-4.19E-19	-3.37E-18	-3.79E-18	-6.04E-05	-3.18E-05	-9.22E-05	-6.20E-05	1.32E-05	-4.88E-05	-2.20E-06	-9.67E-05	-9.89E-05	-0.000110323	-1.42E-05	-0.000124498	-8.79E-06	0.000105788	9.70E-05	6.90E-05	-5.40E-06	6.36E-05	1.58E-05	-4.20E-05	-2.61E-05	0.000183028	-0.000301922	-0.000118894	-9.80E-05	3.62E-05	-6.18E-05	-7.87E-05	2.45E-05	-5.42E-05	1.13E-18	-1.05E-18	7.51E-20	-5.14E-05	-2.13E-05	-7.27E-05	-4.15E-05	-0.00014595	-0.000187482	-0.000213938	-9.54E-05	-0.000309298	-0.000101629	-3.10E-05	-0.000132625	-0.000219063	-5.88E-05	-0.000277849	-4.71E-05	-8.77E-05	-0.000134726	-5.50E-05	-3.53E-05	-9.03E-05	0.000100736	-1.30E-05	8.78E-05	1
0.56	-4.81E-06	-3.48E-05	-3.96E-05	-4.49E-05	-6.08E-06	-5.10E-05	-5.41E-17	1.99E-17	-3.41E-17	8.37E-05	-2.45E-05	5.92E-05	0.000191938	-0.000245777	-5.38E-05	9.07E-05	-7.20E-05	1.88E-05	6.91E-05	5.56E-05	0.000124658	-7.24E-05	8.30E-05	1.06E-05	-5.80E-05	0.000106206	4.82E-05	-6.13E-05	4.12E-05	-2.01E-05	-0.000200303	0.00014187	-5.84E-05	0.000107811	-0.000115393	-7.58E-06	9.93E-05	-0.000113268	-1.40E-05	-3.50E-17	-1.24E-17	-4.74E-17	-8.71E-05	5.85E-05	-2.86E-05	-0.000271513	0.000296107	2.46E-05	-0.000409688	0.000401854	-7.83E-06	0.000192996	-0.000154582	3.84E-05	0.000484036	-0.000517657	-3.36E-05	0.000196738	-0.000161343	3.54E-05	4.52E-05	6.86E-05	0.000113801	-8.77E-05	0.000131038	4.33E-05	5.93E-05	2.70E-05	8.63E-05	-4.42E-05	0.000162183	0.000117947	-6.53E-19	-3.55E-18	-4.20E-18	-6.17E-05	-3.15E-05	-9.33E-05	-6.40E-05	1.16E-05	-5.24E-05	-2.24E-06	-9.88E-05	-0.00010109	-0.000110795	-1.36E-05	-0.000124411	-1.09E-05	0.000105354	9.44E-05	6.73E-05	-4.57E-06	6.27E-05	1.30E-05	-3.92E-05	-2.62E-05	0.00017749	-0.000294973	-0.000117483	-9.62E-05	3.32E-05	-6.29E-05	-7.65E-05	2.14E-05	-5.51E-05	1.23E-18	-1.16E-18	6.72E-20	-5.22E-05	-2.00E-05	-7.22E-05	-4.66E-05	-0.000139696	-0.000186269	-0.000220705	-8.94E-05	-0.000310153	-9.96E-05	-3.02E-05	-0.000129826	-0.000210617	-5.73E-05	-0.000267923	-4.41E-05	-8.99E-05	-0.000133974	-5.50E-05	-3.42E-05	-8.92E-05	9.83E-05	-1.03E-05	8.79E-05	1
0.6	-4.31E-06	-3.32E-05	-3.75E-05	-4.35E-05	-4.44E-06	-4.80E-05	-5.35E-17	2.10E-17	-3.25E-17	8.55E-05	-2.60E-05	5.95E-05	0.000199171	-0.000253893	-5.47E-05	9.40E-05	-7.58E-05	1.81E-05	6.80E-05	5.61E-05	0.000124085	-7.19E-05	8.50E-05	1.31E-05	-5.96E-05	0.000109293	4.97E-05	-6.34E-05	4.16E-05	-2.17E-05	-0.000203673	0.000139115	-6.46E-05	0.000110887	-0.000117387	-6.50E-06	0.000102627	-0.000115556	-1.29E-05	-3.60E-17	-1.54E-17	-5.14E-17	-8.87E-05	5.92E-05	-2.95E-05	-0.000285391	0.000297373	1.20E-05	-0.000423644	0.00040119	-2.25E-05	0.000192629	-0.000153302	3.93E-05	0.00047935	-0.000511819	-3.25E-05	0.000198444	-0.000163023	3.54E-05	4.51E-05	6.76E-05	0.000112702	-8.91E-05	0.000131848	4.28E-05	5.34E-05	3.08E-05	8.42E-05	-4.99E-05	0.000165036	0.00011512	-8.65E-19	-3.70E-18	-4.56E-18	-6.30E-05	-3.13E-05	-9.43E-05	-6.59E-05	9.97E-06	-5.59E-05	-2.30E-06	-0.00010099	-0.000103287	-0.000111271	-1.30E-05	-0.000124312	-1.33E-05	0.000104908	9.16E-05	6.55E-05	-3.73E-06	6.18E-05	1.01E-05	-3.63E-05	-2.62E-05	0.00017191	-0.000287954	-0.000116044	-9.43E-05	3.02E-05	-6.41E-05	-7.43E-05	1.83E-05	-5.60E-05	1.31E-18	-1.25E-18	6.68E-20	-5.30E-05	-1.87E-05	-7.16E-05	-5.16E-05	-0.000133398	-0.000185018	-0.000227311	-8.35E-05	-0.000310856	-9.77E-05	-2.91E-05	-0.000126787	-0.00020225	-5.53E-05	-0.000257518	-4.13E-05	-9.18E-05	-0.000133083	-5.52E-05	-3.30E-05	-8.82E-05	9.56E-05	-7.63E-06	8.80E-05	1
0.64	-3.80E-06	-3.16E-05	-3.54E-05	-4.21E-05	-2.85E-06	-4.49E-05	-5.23E-17	2.19E-17	-3.04E-17	8.75E-05	-2.76E-05	5.99E-05	0.000206672	-0.000262068	-5.54E-05	9.73E-05	-7.97E-05	1.76E-05	6.70E-05	5.65E-05	0.000123554	-7.13E-05	8.69E-05	1.56E-05	-6.11E-05	0.000112165	5.11E-05	-6.53E-05	4.19E-05	-2.34E-05	-0.000206935	0.000136165	-7.08E-05	0.000114226	-0.000119462	-5.24E-06	0.000106207	-0.00011792	-1.17E-05	-3.66E-17	-1.83E-17	-5.49E-17	-9.00E-05	5.98E-05	-3.02E-05	-0.000299	0.000298243	-7.57E-07	-0.000437021	0.000399953	-3.71E-05	0.00019264	-0.000152218	4.04E-05	0.000475066	-0.000506175	-3.11E-05	0.000200471	-0.000164908	3.56E-05	4.52E-05	6.65E-05	0.000111664	-9.04E-05	0.000132553	4.22E-05	4.73E-05	3.47E-05	8.20E-05	-5.57E-05	0.000167959	0.000112218	-1.05E-18	-3.81E-18	-4.86E-18	-6.44E-05	-3.11E-05	-9.54E-05	-6.78E-05	8.38E-06	-5.94E-05	-2.39E-06	-0.0001031	-0.000105488	-0.000111786	-1.25E-05	-0.000124242	-1.58E-05	0.000104471	8.87E-05	6.36E-05	-2.89E-06	6.08E-05	7.15E-06	-3.35E-05	-2.64E-05	0.000166373	-0.000280967	-0.000114595	-9.24E-05	2.73E-05	-6.51E-05	-7.22E-05	1.53E-05	-5.69E-05	1.39E-18	-1.32E-18	7.43E-20	-5.37E-05	-1.73E-05	-7.11E-05	-5.66E-05	-0.000127129	-0.000183761	-0.000233743	-7.77E-05	-0.000311432	-9.61E-05	-2.74E-05	-0.00012355	-0.000194131	-5.26E-05	-0.000246755	-3.87E-05	-9.34E-05	-0.000132086	-5.54E-05	-3.19E-05	-8.73E-05	9.27E-05	-4.86E-06	8.79E-05	1
0.68	-3.30E-06	-3.00E-05	-3.33E-05	-4.05E-05	-1.32E-06	-4.19E-05	-5.06E-17	2.26E-17	-2.80E-17	8.96E-05	-2.91E-05	6.05E-05	0.000214482	-0.000270335	-5.59E-05	0.000100919	-8.36E-05	1.73E-05	6.62E-05	5.69E-05	0.000123108	-7.05E-05	8.86E-05	1.81E-05	-6.24E-05	0.000114819	5.25E-05	-6.73E-05	4.22E-05	-2.50E-05	-0.000210099	0.000133041	-7.71E-05	0.000117864	-0.000121644	-3.78E-06	0.000110092	-0.000120384	-1.03E-05	-3.68E-17	-2.10E-17	-5.78E-17	-9.12E-05	6.03E-05	-3.09E-05	-0.000312305	0.000298748	-1.36E-05	-0.000449785	0.000398175	-5.16E-05	0.000193108	-0.000151386	4.17E-05	0.000471364	-0.00050091	-2.95E-05	0.000202889	-0.000167048	3.58E-05	4.54E-05	6.53E-05	0.000110732	-9.17E-05	0.000133184	4.15E-05	4.11E-05	3.86E-05	7.98E-05	-6.17E-05	0.00017097	0.000109282	-1.21E-18	-3.88E-18	-5.09E-18	-6.58E-05	-3.08E-05	-9.66E-05	-6.98E-05	6.90E-06	-6.29E-05	-2.54E-06	-0.000105168	-0.000107707	-0.00011237	-1.19E-05	-0.000124245	-1.84E-05	0.000104061	8.56E-05	6.17E-05	-2.07E-06	5.96E-05	4.20E-06	-3.07E-05	-2.65E-05	0.000160958	-0.000274112	-0.000113153	-9.05E-05	2.45E-05	-6.61E-05	-7.01E-05	1.23E-05	-5.78E-05	1.46E-18	-1.37E-18	8.99E-20	-5.45E-05	-1.60E-05	-7.05E-05	-6.16E-05	-0.000120958	-0.000182523	-0.000239989	-7.19E-05	-0.000311904	-9.48E-05	-2.53E-05	-0.000120156	-0.00018642	-4.93E-05	-0.000235752	-3.65E-05	-9.45E-05	-0.000131016	-5.57E-05	-3.07E-05	-8.64E-05	8.96E-05	-2.04E-06	8.76E-05	1
0.72	-2.81E-06	-2.82E-05	-3.11E-05	-3.89E-05	1.58E-07	-3.88E-05	-4.83E-17	2.31E-17	-2.52E-17	9.18E-05	-3.06E-05	6.12E-05	0.000222637	-0.000278724	-5.61E-05	0.000104745	-8.76E-05	1.72E-05	6.56E-05	5.71E-05	0.000122787	-6.96E-05	9.02E-05	2.06E-05	-6.35E-05	0.000117255	5.37E-05	-6.91E-05	4.24E-05	-2.67E-05	-0.000213176	0.000129763	-8.34E-05	0.00012183	-0.000123956	-2.13E-06	0.00011431	-0.000122966	-8.66E-06	-3.67E-17	-2.35E-17	-6.02E-17	-9.22E-05	6.06E-05	-3.15E-05	-0.000325271	0.000298914	-2.64E-05	-0.000461903	0.000395887	-6.60E-05	0.000194105	-0.000150859	4.32E-05	0.000468409	-0.000496194	-2.78E-05	0.000205762	-0.000169491	3.63E-05	4.57E-05	6.42E-05	0.000109949	-9.30E-05	0.000133769	4.08E-05	3.49E-05	4.26E-05	7.76E-05	-6.77E-05	0.000174084	0.000106349	-1.35E-18	-3.90E-18	-5.25E-18	-6.72E-05	-3.05E-05	-9.78E-05	-7.18E-05	5.57E-06	-6.62E-05	-2.78E-06	-0.000107183	-0.00010996	-0.000113052	-1.13E-05	-0.00012436	-2.13E-05	0.000103696	8.24E-05	5.97E-05	-1.29E-06	5.84E-05	1.25E-06	-2.80E-05	-2.67E-05	0.000155744	-0.000267482	-0.000111738	-8.88E-05	2.18E-05	-6.70E-05	-6.81E-05	9.41E-06	-5.87E-05	1.51E-18	-1.40E-18	1.14E-19	-5.52E-05	-1.47E-05	-6.99E-05	-6.64E-05	-0.00011495	-0.000181333	-0.000246042	-6.63E-05	-0.000312297	-9.40E-05	-2.27E-05	-0.000116646	-0.000179271	-4.54E-05	-0.000224626	-3.47E-05	-9.52E-05	-0.000129905	-5.62E-05	-2.96E-05	-8.58E-05	8.64E-05	7.88E-07	8.72E-05	1
0.76	-2.34E-06	-2.65E-05	-2.88E-05	-3.72E-05	1.58E-06	-3.57E-05	-4.54E-17	2.33E-17	-2.21E-17	9.43E-05	-3.21E-05	6.22E-05	0.000231172	-0.000287264	-5.61E-05	0.000108834	-9.16E-05	1.73E-05	6.53E-05	5.74E-05	0.000122628	-6.86E-05	9.17E-05	2.30E-05	-6.45E-05	0.000119475	5.50E-05	-7.09E-05	4.26E-05	-2.83E-05	-0.000216174	0.000126348	-8.98E-05	0.00012615	-0.000126421	-2.70E-07	0.000118888	-0.000125687	-6.80E-06	-3.61E-17	-2.58E-17	-6.19E-17	-9.29E-05	6.08E-05	-3.21E-05	-0.000337864	0.000298767	-3.91E-05	-0.000473348	0.000393115	-8.02E-05	0.000195695	-0.000150683	4.50E-05	0.000466351	-0.000492185	-2.58E-05	0.000209146	-0.000172277	3.69E-05	4.62E-05	6.32E-05	0.000109352	-9.43E-05	0.000134333	4.01E-05	2.87E-05	4.67E-05	7.54E-05	-7.39E-05	0.000177316	0.000103454	-1.45E-18	-3.89E-18	-5.34E-18	-6.88E-05	-3.03E-05	-9.91E-05	-7.39E-05	4.45E-06	-6.95E-05	-3.12E-06	-0.000109138	-0.000112261	-0.000113861	-1.08E-05	-0.000124625	-2.42E-05	0.000103394	7.92E-05	5.77E-05	-5.61E-07	5.72E-05	-1.69E-06	-2.53E-05	-2.70E-05	0.000150801	-0.000261166	-0.000110365	-8.71E-05	1.93E-05	-6.78E-05	-6.64E-05	6.67E-06	-5.97E-05	1.55E-18	-1.41E-18	1.46E-19	-5.60E-05	-1.34E-05	-6.94E-05	-7.10E-05	-0.000109168	-0.000180215	-0.000251891	-6.07E-05	-0.000312633	-9.36E-05	-1.95E-05	-0.000113061	-0.000172828	-4.07E-05	-0.000213486	-3.34E-05	-9.54E-05	-0.000128782	-5.68E-05	-2.86E-05	-8.53E-05	8.30E-05	3.62E-06	8.66E-05	1
0.8	-1.90E-06	-2.47E-05	-2.66E-05	-3.55E-05	2.94E-06	-3.26E-05	-4.20E-17	2.33E-17	-1.87E-17	9.70E-05	-3.37E-05	6.33E-05	0.000240115	-0.000295978	-5.59E-05	0.000113209	-9.56E-05	1.76E-05	6.51E-05	5.75E-05	0.000122664	-6.75E-05	9.30E-05	2.54E-05	-6.53E-05	0.00012148	5.62E-05	-7.26E-05	4.27E-05	-2.99E-05	-0.000219099	0.000122811	-9.63E-05	0.000130846	-0.000129055	1.79E-06	0.000123845	-0.000128561	-4.72E-06	-3.52E-17	-2.78E-17	-6.30E-17	-9.34E-05	6.09E-05	-3.25E-05	-0.000350054	0.000298334	-5.17E-05	-0.000484092	0.000389886	-9.42E-05	0.000197932	-0.000150898	4.70E-05	0.000465324	-0.000489026	-2.37E-05	0.000213089	-0.000175443	3.76E-05	4.68E-05	6.21E-05	0.000108977	-9.55E-05	0.000134902	3.94E-05	2.26E-05	5.07E-05	7.33E-05	-8.00E-05	0.000180679	0.000100632	-1.53E-18	-3.83E-18	-5.36E-18	-7.05E-05	-3.00E-05	-0.000100542	-7.62E-05	3.57E-06	-7.27E-05	-3.60E-06	-0.000111023	-0.000114622	-0.000114821	-1.03E-05	-0.000125075	-2.74E-05	0.000103169	7.58E-05	5.58E-05	1.03E-07	5.59E-05	-4.60E-06	-2.28E-05	-2.74E-05	0.000146197	-0.000255245	-0.000109049	-8.56E-05	1.71E-05	-6.86E-05	-6.48E-05	4.10E-06	-6.07E-05	1.58E-18	-1.40E-18	1.86E-19	-5.67E-05	-1.21E-05	-6.89E-05	-7.55E-05	-0.000103669	-0.000179192	-0.000257532	-5.54E-05	-0.000312932	-9.38E-05	-1.57E-05	-0.000109437	-0.000167224	-3.52E-05	-0.000202437	-3.25E-05	-9.52E-05	-0.000127677	-5.76E-05	-2.76E-05	-8.52E-05	7.95E-05	6.43E-06	8.59E-05	1
0.84	-1.50E-06	-2.28E-05	-2.43E-05	-3.38E-05	4.24E-06	-2.95E-05	-3.81E-17	2.30E-17	-1.51E-17	9.99E-05	-3.52E-05	6.47E-05	0.000249491	-0.00030489	-5.54E-05	0.00011789	-9.98E-05	1.81E-05	6.53E-05	5.76E-05	0.000122923	-6.63E-05	9.41E-05	2.78E-05	-6.60E-05	0.000123273	5.73E-05	-7.42E-05	4.27E-05	-3.15E-05	-0.000221952	0.000119164	-0.000102787	0.000135934	-0.000131874	4.06E-06	0.000129198	-0.000131602	-2.40E-06	-3.38E-17	-2.96E-17	-6.35E-17	-9.36E-05	6.08E-05	-3.29E-05	-0.000361808	0.000297636	-6.42E-05	-0.00049411	0.000386221	-0.000107889	0.00020086	-0.000151536	4.93E-05	0.00046544	-0.000486842	-2.14E-05	0.00021763	-0.000179019	3.86E-05	4.77E-05	6.12E-05	0.000108854	-9.68E-05	0.000135499	3.87E-05	1.65E-05	5.47E-05	7.12E-05	-8.63E-05	0.000184181	9.79E-05	-1.58E-18	-3.72E-18	-5.30E-18	-7.24E-05	-2.98E-05	-0.000102124	-7.87E-05	2.97E-06	-7.57E-05	-4.22E-06	-0.000112831	-0.000117055	-0.000115955	-9.79E-06	-0.000125742	-3.07E-05	0.000103035	7.24E-05	5.38E-05	6.89E-07	5.45E-05	-7.45E-06	-2.03E-05	-2.78E-05	0.00014199	-0.000249795	-0.000107805	-8.43E-05	1.51E-05	-6.93E-05	-6.36E-05	1.74E-06	-6.18E-05	1.60E-18	-1.37E-18	2.33E-19	-5.75E-05	-1.09E-05	-6.84E-05	-7.98E-05	-9.85E-05	-0.000178285	-0.000262959	-5.03E-05	-0.000313217	-9.46E-05	-1.12E-05	-0.00010581	-0.000162577	-2.90E-05	-0.000191578	-3.22E-05	-9.44E-05	-0.000126618	-5.86E-05	-2.67E-05	-8.52E-05	7.58E-05	9.21E-06	8.50E-05	1
0.88	-1.15E-06	-2.09E-05	-2.20E-05	-3.20E-05	5.50E-06	-2.65E-05	-3.36E-17	2.25E-17	-1.12E-17	0.000103056	-3.67E-05	6.63E-05	0.000259316	-0.000314015	-5.47E-05	0.000122891	-0.000103975	1.89E-05	6.57E-05	5.77E-05	0.000123432	-6.51E-05	9.52E-05	3.01E-05	-6.64E-05	0.000124857	5.84E-05	-7.57E-05	4.27E-05	-3.30E-05	-0.000224733	0.000115416	-0.000109317	0.000141424	-0.000134889	6.54E-06	0.000134956	-0.000134818	1.38E-07	-3.21E-17	-3.11E-17	-6.32E-17	-9.37E-05	6.05E-05	-3.31E-05	-0.000373098	0.000296692	-7.64E-05	-0.000503381	0.00038214	-0.000121241	0.000204511	-0.000152622	5.19E-05	0.000466791	-0.000485737	-1.89E-05	0.000222797	-0.000183027	3.98E-05	4.87E-05	6.03E-05	0.000109007	-9.82E-05	0.000136146	3.80E-05	1.06E-05	5.87E-05	6.92E-05	-9.25E-05	0.00018783	9.53E-05	-1.60E-18	-3.58E-18	-5.17E-18	-7.43E-05	-2.95E-05	-0.000103865	-8.14E-05	2.69E-06	-7.87E-05	-5.01E-06	-0.000114556	-0.000119571	-0.000117283	-9.37E-06	-0.000126654	-3.41E-05	0.000103003	6.89E-05	5.20E-05	1.18E-06	5.32E-05	-1.03E-05	-1.80E-05	-2.83E-05	0.000138234	-0.00024488	-0.000106646	-8.33E-05	1.34E-05	-6.99E-05	-6.27E-05	-3.72E-07	-6.30E-05	1.60E-18	-1.31E-18	2.88E-19	-5.82E-05	-9.68E-06	-6.79E-05	-8.38E-05	-9.37E-05	-0.000177513	-0.000268172	-4.53E-05	-0.000313505	-9.60E-05	-6.22E-06	-0.000102214	-0.000158993	-2.20E-05	-0.000180998	-3.26E-05	-9.31E-05	-0.000125628	-5.98E-05	-2.58E-05	-8.56E-05	7.21E-05	1.19E-05	8.40E-05	1
0.92	-8.42E-07	-1.89E-05	-1.97E-05	-3.03E-05	6.72E-06	-2.36E-05	-2.87E-17	2.17E-17	-7.03E-18	0.000106465	-3.83E-05	6.82E-05	0.000269602	-0.000323367	-5.38E-05	0.000128223	-0.000108269	2.00E-05	6.65E-05	5.77E-05	0.000124208	-6.38E-05	9.61E-05	3.23E-05	-6.67E-05	0.000126239	5.95E-05	-7.71E-05	4.26E-05	-3.45E-05	-0.000227441	0.000111573	-0.000115868	0.000147321	-0.000138106	9.21E-06	0.000141126	-0.000138216	2.91E-06	-3.00E-17	-3.23E-17	-6.23E-17	-9.35E-05	6.01E-05	-3.33E-05	-0.000383894	0.000295522	-8.84E-05	-0.000511884	0.000377658	-0.000134226	0.000208906	-0.000154174	5.47E-05	0.000469447	-0.000485797	-1.63E-05	0.000228611	-0.000187483	4.11E-05	5.00E-05	5.95E-05	0.000109455	-9.95E-05	0.000136862	3.73E-05	4.78E-06	6.26E-05	6.74E-05	-9.87E-05	0.000191631	9.29E-05	-1.59E-18	-3.39E-18	-4.97E-18	-7.65E-05	-2.93E-05	-0.00010578	-8.43E-05	2.76E-06	-8.16E-05	-5.99E-06	-0.000116192	-0.000122178	-0.000118821	-9.01E-06	-0.000127834	-3.76E-05	0.000103084	6.55E-05	5.02E-05	1.58E-06	5.18E-05	-1.30E-05	-1.59E-05	-2.89E-05	0.000134974	-0.000240557	-0.000105583	-8.25E-05	1.20E-05	-7.05E-05	-6.21E-05	-2.22E-06	-6.43E-05	1.59E-18	-1.24E-18	3.49E-19	-5.90E-05	-8.50E-06	-6.75E-05	-8.75E-05	-8.94E-05	-0.000176891	-0.000273168	-4.06E-05	-0.000313813	-9.81E-05	-5.70E-07	-9.87E-05	-0.000156559	-1.42E-05	-0.000170777	-3.35E-05	-9.12E-05	-0.000124731	-6.12E-05	-2.51E-05	-8.64E-05	6.82E-05	1.46E-05	8.28E-05	1
0.96	-5.98E-07	-1.68E-05	-1.74E-05	-2.86E-05	7.90E-06	-2.07E-05	-2.34E-17	2.07E-17	-2.73E-18	0.00011013	-3.98E-05	7.03E-05	0.000280355	-0.000332954	-5.26E-05	0.000133891	-0.000112651	2.12E-05	6.76E-05	5.77E-05	0.000125266	-6.24E-05	9.69E-05	3.46E-05	-6.69E-05	0.000127423	6.06E-05	-7.84E-05	4.25E-05	-3.59E-05	-0.000230069	0.000107638	-0.000122431	0.000153622	-0.000141529	1.21E-05	0.000147704	-0.000141799	5.91E-06	-2.75E-17	-3.33E-17	-6.08E-17	-9.31E-05	5.96E-05	-3.35E-05	-0.000394169	0.000294138	-0.000100031	-0.000519603	0.000372789	-0.000146814	0.000214053	-0.000156201	5.79E-05	0.000473454	-0.000487084	-1.36E-05	0.000235078	-0.000192394	4.27E-05	5.14E-05	5.88E-05	0.000110213	-0.000100937	0.000137662	3.67E-05	-8.12E-07	6.65E-05	6.57E-05	-0.000104944	0.000195584	9.06E-05	-1.55E-18	-3.16E-18	-4.71E-18	-7.88E-05	-2.91E-05	-0.000107881	-8.75E-05	3.21E-06	-8.43E-05	-7.15E-06	-0.000117734	-0.000124884	-0.000120581	-8.72E-06	-0.000129303	-4.13E-05	0.000103285	6.20E-05	4.85E-05	1.86E-06	5.04E-05	-1.56E-05	-1.39E-05	-2.95E-05	0.000132246	-0.000236874	-0.000104628	-8.20E-05	1.10E-05	-7.10E-05	-6.18E-05	-3.79E-06	-6.56E-05	1.57E-18	-1.15E-18	4.15E-19	-5.98E-05	-7.37E-06	-6.72E-05	-9.10E-05	-8.54E-05	-0.000176435	-0.000277951	-3.62E-05	-0.000314159	-0.00010094	5.71E-06	-9.52E-05	-0.000155349	-5.64E-06	-0.000160987	-3.51E-05	-8.88E-05	-0.000123946	-6.29E-05	-2.45E-05	-8.75E-05	6.42E-05	1.72E-05	8.15E-05	1
1	-4.20E-07	-1.46E-05	-1.50E-05	-2.69E-05	9.05E-06	-1.78E-05	-1.78E-17	1.95E-17	1.68E-18	0.000114053	-4.13E-05	7.27E-05	0.000291572	-0.000342779	-5.12E-05	0.000139897	-0.000117124	2.28E-05	6.89E-05	5.77E-05	0.000126616	-6.09E-05	9.76E-05	3.67E-05	-6.68E-05	0.000128417	6.16E-05	-7.96E-05	4.23E-05	-3.73E-05	-0.000232608	0.00010361	-0.000128998	0.000160321	-0.000145157	1.52E-05	0.000154685	-0.000145565	9.12E-06	-2.47E-17	-3.38E-17	-5.86E-17	-9.24E-05	5.89E-05	-3.36E-05	-0.000403899	0.000292552	-0.000111347	-0.000526523	0.00036754	-0.000158983	0.000219949	-0.000158702	6.12E-05	0.000478835	-0.000489641	-1.08E-05	0.000242195	-0.000197761	4.44E-05	5.31E-05	5.82E-05	0.000111289	-0.000102375	0.00013856	3.62E-05	-6.19E-06	7.04E-05	6.42E-05	-0.000111108	0.000199688	8.86E-05	-1.48E-18	-2.90E-18	-4.38E-18	-8.13E-05	-2.89E-05	-0.000110176	-9.10E-05	4.05E-06	-8.70E-05	-8.52E-06	-0.000119179	-0.000127695	-0.000122573	-8.50E-06	-0.000131075	-4.50E-05	0.000103612	5.86E-05	4.69E-05	2.03E-06	4.89E-05	-1.82E-05	-1.21E-05	-3.02E-05	0.000130077	-0.000233867	-0.00010379	-8.19E-05	1.04E-05	-7.14E-05	-6.20E-05	-5.06E-06	-6.71E-05	1.53E-18	-1.04E-18	4.86E-19	-6.06E-05	-6.28E-06	-6.69E-05	-9.42E-05	-8.20E-05	-0.000176154	-0.000282523	-3.20E-05	-0.000314555	-0.00010451	1.26E-05	-9.19E-05	-0.000155417	3.73E-06	-0.000151688	-3.74E-05	-8.59E-05	-0.000123291	-6.49E-05	-2.40E-05	-8.89E-05	6.02E-05	1.97E-05	7.99E-05	1
1.04	-3.13E-07	-1.24E-05	-1.27E-05	-2.52E-05	1.02E-05	-1.51E-05	-1.19E-17	1.80E-17	6.17E-18	0.000118229	-4.29E-05	7.54E-05	0.000303246	-0.000352839	-4.96E-05	0.000146236	-0.000121692	2.45E-05	7.06E-05	5.76E-05	0.00012826	-5.94E-05	9.82E-05	3.88E-05	-6.66E-05	0.000129227	6.27E-05	-8.07E-05	4.20E-05	-3.87E-05	-0.000235047	9.95E-05	-0.00013556	0.000167402	-0.000148983	1.84E-05	0.000162056	-0.000149509	1.25E-05	-2.16E-17	-3.41E-17	-5.57E-17	-9.16E-05	5.80E-05	-3.36E-05	-0.000413058	0.000290772	-0.000122286	-0.000532632	0.000361916	-0.000170715	0.000226577	-0.000161671	6.49E-05	0.000485587	-0.000493484	-7.90E-06	0.000249948	-0.000203576	4.64E-05	5.49E-05	5.78E-05	0.000112685	-0.000103856	0.000139567	3.57E-05	-1.13E-05	7.41E-05	6.28E-05	-0.00011721	0.000203941	8.67E-05	-1.39E-18	-2.60E-18	-3.99E-18	-8.39E-05	-2.87E-05	-0.000112671	-9.48E-05	5.29E-06	-8.95E-05	-1.01E-05	-0.000120525	-0.000130613	-0.000124803	-8.36E-06	-0.00013316	-4.89E-05	0.000104068	5.52E-05	4.55E-05	2.07E-06	4.75E-05	-2.06E-05	-1.04E-05	-3.11E-05	0.000128489	-0.000231564	-0.000103075	-8.20E-05	1.02E-05	-7.18E-05	-6.26E-05	-6.01E-06	-6.86E-05	1.47E-18	-9.14E-19	5.59E-19	-6.14E-05	-5.25E-06	-6.66E-05	-9.70E-05	-7.90E-05	-0.000176058	-0.000286889	-2.81E-05	-0.000315015	-0.000108826	2.01E-05	-8.87E-05	-0.000156799	1.39E-05	-0.000142929	-4.03E-05	-8.24E-05	-0.000122779	-6.71E-05	-2.36E-05	-9.08E-05	5.60E-05	2.22E-05	7.82E-05	1
1.08	-2.82E-07	-9.99E-06	-1.03E-05	-2.36E-05	1.13E-05	-1.23E-05	-5.71E-18	1.64E-17	1.07E-17	0.000122651	-4.44E-05	7.82E-05	0.00031536	-0.000363127	-4.78E-05	0.000152898	-0.000126354	2.65E-05	7.27E-05	5.75E-05	0.000130197	-5.79E-05	9.88E-05	4.09E-05	-6.62E-05	0.000129862	6.37E-05	-8.17E-05	4.17E-05	-4.00E-05	-0.000237371	9.53E-05	-0.00014211	0.000174846	-0.000152998	2.18E-05	0.000169795	-0.000153622	1.62E-05	-1.82E-17	-3.41E-17	-5.23E-17	-9.05E-05	5.69E-05	-3.36E-05	-0.000421626	0.000288803	-0.000132823	-0.000537921	0.00035592	-0.000182002	0.000233908	-0.000165091	6.88E-05	0.000493685	-0.000498609	-4.92E-06	0.000258312	-0.000209825	4.85E-05	5.69E-05	5.75E-05	0.000114396	-0.00010538	0.00014069	3.53E-05	-1.62E-05	7.78E-05	6.15E-05	-0.000123233	0.000208333	8.51E-05	-1.28E-18	-2.27E-18	-3.55E-18	-8.68E-05	-2.86E-05	-0.00011537	-9.89E-05	6.94E-06	-9.20E-05	-1.19E-05	-0.00012177	-0.00013364	-0.000127271	-8.29E-06	-0.000135564	-5.29E-05	0.000104655	5.18E-05	4.42E-05	1.99E-06	4.61E-05	-2.30E-05	-8.96E-06	-3.19E-05	0.00012749	-0.00022998	-0.00010249	-8.25E-05	1.03E-05	-7.22E-05	-6.36E-05	-6.63E-06	-7.02E-05	1.41E-18	-7.73E-19	6.35E-19	-6.22E-05	-4.27E-06	-6.65E-05	-9.96E-05	-7.66E-05	-0.000176153	-0.000291058	-2.45E-05	-0.000315548	-0.000113891	2.83E-05	-8.56E-05	-0.000159512	2.48E-05	-0.000134749	-4.40E-05	-7.85E-05	-0.000122422	-6.96E-05	-2.34E-05	-9.30E-05	5.18E-05	2.45E-05	7.63E-05	1
1.12	-3.30E-07	-7.53E-06	-7.86E-06	-2.21E-05	1.24E-05	-9.70E-06	6.09E-19	1.45E-17	1.51E-17	0.000127307	-4.60E-05	8.14E-05	0.000327891	-0.000373629	-4.57E-05	0.00015987	-0.00013111	2.88E-05	7.50E-05	5.74E-05	0.000132419	-5.63E-05	9.92E-05	4.29E-05	-6.56E-05	0.000130329	6.47E-05	-8.25E-05	4.12E-05	-4.12E-05	-0.000239563	9.09E-05	-0.000148638	0.000182626	-0.000157189	2.54E-05	0.00017788	-0.000157891	2.00E-05	-1.46E-17	-3.37E-17	-4.83E-17	-8.92E-05	5.57E-05	-3.35E-05	-0.000429581	0.000286645	-0.000142935	-0.000542385	0.000349548	-0.000192837	0.000241903	-0.000168938	7.30E-05	0.000503078	-0.000504988	-1.91E-06	0.000267251	-0.000216483	5.08E-05	5.92E-05	5.72E-05	0.000116413	-0.000106947	0.000141935	3.50E-05	-2.09E-05	8.13E-05	6.05E-05	-0.000129162	0.000212857	8.37E-05	-1.15E-18	-1.91E-18	-3.06E-18	-8.98E-05	-2.84E-05	-0.00011827	-0.000103293	8.99E-06	-9.43E-05	-1.39E-05	-0.000122915	-0.000136776	-0.000129976	-8.31E-06	-0.000138288	-5.69E-05	0.000105371	4.85E-05	4.30E-05	1.77E-06	4.48E-05	-2.52E-05	-7.69E-06	-3.29E-05	0.000127083	-0.000229123	-0.00010204	-8.33E-05	1.09E-05	-7.25E-05	-6.50E-05	-6.94E-06	-7.19E-05	1.33E-18	-6.18E-19	7.11E-19	-6.30E-05	-3.35E-06	-6.64E-05	-0.000101795	-7.46E-05	-0.000176441	-0.000295037	-2.11E-05	-0.000316164	-0.000119693	3.70E-05	-8.27E-05	-0.000163557	3.64E-05	-0.000127174	-4.83E-05	-7.40E-05	-0.000122228	-7.23E-05	-2.33E-05	-9.56E-05	4.74E-05	2.68E-05	7.42E-05	1
1.16	-4.61E-07	-4.96E-06	-5.42E-06	-2.07E-05	1.36E-05	-7.13E-06	7.00E-18	1.25E-17	1.95E-17	0.000132181	-4.75E-05	8.47E-05	0.00034081	-0.000384326	-4.35E-05	0.000167132	-0.000135958	3.12E-05	7.76E-05	5.73E-05	0.000134912	-5.47E-05	9.96E-05	4.49E-05	-6.49E-05	0.000130638	6.58E-05	-8.32E-05	4.07E-05	-4.24E-05	-0.000241603	8.65E-05	-0.000155137	0.000190711	-0.000161536	2.92E-05	0.000186279	-0.000162301	2.40E-05	-1.07E-17	-3.30E-17	-4.38E-17	-8.77E-05	5.43E-05	-3.34E-05	-0.000436905	0.000284298	-0.000152606	-0.000546018	0.000342796	-0.000203222	0.000250509	-0.000173178	7.73E-05	0.000513695	-0.000512571	1.12E-06	0.000276719	-0.00022352	5.32E-05	6.15E-05	5.72E-05	0.00011872	-0.000108554	0.000143303	3.47E-05	-2.52E-05	8.48E-05	5.96E-05	-0.000134982	0.000217499	8.25E-05	-9.99E-19	-1.53E-18	-2.53E-18	-9.30E-05	-2.83E-05	-0.000121368	-0.000108	1.15E-05	-9.65E-05	-1.61E-05	-0.00012396	-0.000140019	-0.000132912	-8.42E-06	-0.000141328	-6.10E-05	0.000106214	4.52E-05	4.20E-05	1.41E-06	4.34E-05	-2.74E-05	-6.62E-06	-3.40E-05	0.00012726	-0.000228989	-0.000101728	-8.45E-05	1.18E-05	-7.27E-05	-6.68E-05	-6.91E-06	-7.37E-05	1.24E-18	-4.53E-19	7.86E-19	-6.38E-05	-2.49E-06	-6.63E-05	-0.000103721	-7.32E-05	-0.000176923	-0.000298837	-1.80E-05	-0.000316869	-0.000126215	4.62E-05	-8.00E-05	-0.000168914	4.87E-05	-0.000120218	-5.32E-05	-6.90E-05	-0.0001222	-7.54E-05	-2.33E-05	-9.87E-05	4.29E-05	2.90E-05	7.19E-05	1
1.2	-6.75E-07	-2.28E-06	-2.95E-06	-1.93E-05	1.47E-05	-4.61E-06	1.34E-17	1.04E-17	2.38E-17	0.000137253	-4.91E-05	8.82E-05	0.000354081	-0.000395194	-4.11E-05	0.000174661	-0.000140893	3.38E-05	8.04E-05	5.72E-05	0.000137658	-5.31E-05	9.99E-05	4.68E-05	-6.40E-05	0.000130798	6.68E-05	-8.37E-05	4.02E-05	-4.36E-05	-0.000243471	8.19E-05	-0.0001616	0.000199061	-0.000166017	3.30E-05	0.000194956	-0.000166831	2.81E-05	-6.70E-18	-3.21E-17	-3.88E-17	-8.61E-05	5.27E-05	-3.33E-05	-0.000443582	0.000281757	-0.000161825	-0.000548822	0.000335657	-0.000213166	0.000259663	-0.000177773	8.19E-05	0.000525441	-0.000521287	4.15E-06	0.00028666	-0.000230899	5.58E-05	6.41E-05	5.72E-05	0.000121296	-0.000110198	0.000144794	3.46E-05	-2.92E-05	8.82E-05	5.89E-05	-0.000140679	0.000222245	8.16E-05	-8.36E-19	-1.14E-18	-1.97E-18	-9.64E-05	-2.83E-05	-0.000124658	-0.000113004	1.43E-05	-9.87E-05	-1.85E-05	-0.00012491	-0.000143364	-0.000136069	-8.60E-06	-0.000144674	-6.52E-05	0.00010718	4.20E-05	4.11E-05	9.28E-07	4.21E-05	-2.94E-05	-5.73E-06	-3.51E-05	0.000128006	-0.000229562	-0.000101556	-8.60E-05	1.32E-05	-7.28E-05	-6.90E-05	-6.57E-06	-7.56E-05	1.14E-18	-2.80E-19	8.59E-19	-6.47E-05	-1.70E-06	-6.64E-05	-0.000105352	-7.22E-05	-0.000177597	-0.00030247	-1.52E-05	-0.000317669	-0.000133428	5.60E-05	-7.74E-05	-0.000175546	6.17E-05	-0.000113887	-5.87E-05	-6.36E-05	-0.000122342	-7.86E-05	-2.35E-05	-0.000102083	3.83E-05	3.11E-05	6.94E-05	1
1.24	-9.74E-07	5.23E-07	-4.50E-07	-1.81E-05	1.59E-05	-2.15E-06	1.97E-17	8.09E-18	2.78E-17	0.000142501	-5.06E-05	9.19E-05	0.000367662	-0.000406205	-3.85E-05	0.000182427	-0.000145908	3.65E-05	8.35E-05	5.71E-05	0.000140634	-5.15E-05	0.000100259	4.88E-05	-6.29E-05	0.000130819	6.79E-05	-8.42E-05	3.95E-05	-4.46E-05	-0.000245142	7.71E-05	-0.000168018	0.000207636	-0.000170608	3.70E-05	0.00020387	-0.00017146	3.24E-05	-2.57E-18	-3.08E-17	-3.33E-17	-8.42E-05	5.10E-05	-3.32E-05	-0.000449598	0.000279015	-0.000170584	-0.000550799	0.000328119	-0.000222679	0.000269291	-0.000182675	8.66E-05	0.000538201	-0.000531044	7.16E-06	0.000297009	-0.000238577	5.84E-05	6.67E-05	5.74E-05	0.000124114	-0.000111874	0.000146404	3.45E-05	-3.30E-05	9.14E-05	5.84E-05	-0.00014624	0.000227078	8.08E-05	-6.61E-19	-7.30E-19	-1.39E-18	-9.99E-05	-2.82E-05	-0.000128128	-0.000118293	1.75E-05	-0.000100765	-2.10E-05	-0.000125766	-0.000146806	-0.000139434	-8.88E-06	-0.000148313	-6.94E-05	0.00010826	3.89E-05	4.05E-05	3.10E-07	4.08E-05	-3.14E-05	-5.03E-06	-3.64E-05	0.000129298	-0.000230822	-0.000101524	-8.78E-05	1.49E-05	-7.30E-05	-7.16E-05	-5.92E-06	-7.75E-05	1.03E-18	-1.01E-19	9.27E-19	-6.55E-05	-9.86E-07	-6.65E-05	-0.000106701	-7.18E-05	-0.000178459	-0.00030595	-1.26E-05	-0.000318566	-0.000141295	6.63E-05	-7.50E-05	-0.000183401	7.52E-05	-0.000108172	-6.49E-05	-5.78E-05	-0.00012265	-8.21E-05	-2.37E-05	-0.000105873	3.36E-05	3.32E-05	6.67E-05	1
1.28	-1.36E-06	3.45E-06	2.09E-06	-1.69E-05	1.72E-05	2.66E-07	2.59E-17	5.70E-18	3.16E-17	0.000147896	-5.22E-05	9.57E-05	0.000381503	-0.000417324	-3.58E-05	0.000190398	-0.000150998	3.94E-05	8.68E-05	5.70E-05	0.000143813	-4.99E-05	0.000100548	5.07E-05	-6.17E-05	0.000130709	6.90E-05	-8.45E-05	3.88E-05	-4.56E-05	-0.000246593	7.22E-05	-0.000174384	0.000216387	-0.000175279	4.11E-05	0.000212976	-0.00017616	3.68E-05	1.63E-18	-2.92E-17	-2.76E-17	-8.21E-05	4.90E-05	-3.31E-05	-0.000454942	0.000276061	-0.000178881	-0.000551953	0.000320172	-0.000231781	0.000279311	-0.00018783	9.15E-05	0.000551842	-0.000541732	1.01E-05	0.000307693	-0.000246502	6.12E-05	6.95E-05	5.76E-05	0.000127143	-0.000113576	0.000148128	3.46E-05	-3.65E-05	9.45E-05	5.80E-05	-0.000151657	0.000231977	8.03E-05	-4.80E-19	-3.15E-19	-7.95E-19	-0.000103606	-2.82E-05	-0.000131767	-0.00012385	2.11E-05	-0.000102752	-2.38E-05	-0.000126534	-0.000150338	-0.000142992	-9.24E-06	-0.000152227	-7.37E-05	0.000109447	3.58E-05	3.99E-05	-4.38E-07	3.95E-05	-3.32E-05	-4.51E-06	-3.77E-05	0.000131103	-0.000232734	-0.000101631	-8.99E-05	1.69E-05	-7.30E-05	-7.46E-05	-4.97E-06	-7.95E-05	9.08E-19	8.16E-20	9.89E-19	-6.63E-05	-3.39E-07	-6.66E-05	-0.000107786	-7.17E-05	-0.000179502	-0.00030929	-1.03E-05	-0.000319563	-0.000149769	7.70E-05	-7.28E-05	-0.000192409	8.94E-05	-0.000103057	-7.15E-05	-5.16E-05	-0.00012312	-8.59E-05	-2.41E-05	-0.000110022	2.87E-05	3.51E-05	6.38E-05	1
1.32	-1.82E-06	6.50E-06	4.68E-06	-1.58E-05	1.85E-05	2.64E-06	3.18E-17	3.24E-18	3.51E-17	0.000153411	-5.38E-05	9.96E-05	0.000395552	-0.000428512	-3.30E-05	0.000198538	-0.000156151	4.24E-05	9.03E-05	5.69E-05	0.000147161	-4.82E-05	0.00010083	5.26E-05	-6.03E-05	0.00013048	7.01E-05	-8.46E-05	3.80E-05	-4.66E-05	-0.000247796	6.71E-05	-0.000180692	0.000225264	-0.000179997	4.53E-05	0.000222225	-0.000180903	4.13E-05	5.87E-18	-2.74E-17	-2.15E-17	-7.99E-05	4.70E-05	-3.30E-05	-0.000459604	0.000272884	-0.00018672	-0.000552294	0.000311802	-0.000240493	0.000289633	-0.000193179	9.65E-05	0.000566214	-0.000553224	1.30E-05	0.000318631	-0.000254619	6.40E-05	7.24E-05	5.80E-05	0.000130346	-0.000115297	0.000149958	3.47E-05	-3.97E-05	9.75E-05	5.78E-05	-0.000156918	0.000236923	8.00E-05	-2.94E-19	1.01E-19	-1.93E-19	-0.000107407	-2.82E-05	-0.000135559	-0.000129651	2.50E-05	-0.000104667	-2.67E-05	-0.00012722	-0.000153949	-0.000146723	-9.67E-06	-0.000156396	-7.80E-05	0.00011073	3.28E-05	3.95E-05	-1.31E-06	3.82E-05	-3.49E-05	-4.18E-06	-3.91E-05	0.000133385	-0.000235259	-0.000101875	-9.23E-05	1.93E-05	-7.30E-05	-7.79E-05	-3.75E-06	-8.16E-05	7.80E-19	2.64E-19	1.04E-18	-6.71E-05	2.34E-07	-6.68E-05	-0.00010863	-7.21E-05	-0.000180716	-0.000312507	-8.15E-06	-0.000320659	-0.000158799	8.81E-05	-7.07E-05	-0.000202486	0.000103973	-9.85E-05	-7.86E-05	-4.51E-05	-0.000123746	-8.99E-05	-2.46E-05	-0.000114508	2.36E-05	3.71E-05	6.07E-05	1
1.36	-2.36E-06	9.68E-06	7.32E-06	-1.49E-05	1.99E-05	5.00E-06	3.74E-17	7.38E-19	3.81E-17	0.000159012	-5.54E-05	0.000103631	0.000409749	-0.000439727	-3.00E-05	0.000206806	-0.000161357	4.54E-05	9.39E-05	5.67E-05	0.000150643	-4.66E-05	0.000101118	5.45E-05	-5.88E-05	0.000130142	7.13E-05	-8.46E-05	3.72E-05	-4.74E-05	-0.000248726	6.18E-05	-0.000186934	0.00023421	-0.000184728	4.95E-05	0.000231564	-0.000185659	4.59E-05	1.01E-17	-2.53E-17	-1.52E-17	-7.76E-05	4.47E-05	-3.29E-05	-0.000463578	0.00026947	-0.000194107	-0.000551834	0.000302995	-0.000248839	0.000300158	-0.000198659	0.000101499	0.000581155	-0.000565379	1.58E-05	0.000329736	-0.00026287	6.69E-05	7.53E-05	5.84E-05	0.000133685	-0.000117029	0.000151884	3.49E-05	-4.26E-05	0.00010033	5.78E-05	-0.000162015	0.000241893	7.99E-05	-1.07E-19	5.12E-19	4.05E-19	-0.00011132	-2.82E-05	-0.000139487	-0.000135671	2.92E-05	-0.000106517	-2.98E-05	-0.000127831	-0.00015763	-0.000150605	-1.02E-05	-0.000160794	-8.23E-05	0.000112097	2.98E-05	3.93E-05	-2.30E-06	3.70E-05	-3.66E-05	-4.00E-06	-4.06E-05	0.000136097	-0.000238349	-0.000102252	-9.50E-05	2.20E-05	-7.30E-05	-8.15E-05	-2.26E-06	-8.37E-05	6.47E-19	4.44E-19	1.09E-18	-6.78E-05	7.31E-07	-6.71E-05	-0.000109257	-7.28E-05	-0.000182091	-0.000315615	-6.24E-06	-0.000321852	-0.000168323	9.96E-05	-6.87E-05	-0.000213533	0.000119028	-9.45E-05	-8.62E-05	-3.83E-05	-0.000124517	-9.41E-05	-2.52E-05	-0.000119308	1.84E-05	3.89E-05	5.73E-05	1
1.4	-2.98E-06	1.30E-05	1.00E-05	-1.40E-05	2.14E-05	7.33E-06	4.26E-17	-1.79E-18	4.08E-17	0.000164664	-5.70E-05	0.000107692	0.000424032	-0.000450922	-2.69E-05	0.00021516	-0.000166603	4.86E-05	9.76E-05	5.66E-05	0.000154219	-4.50E-05	0.000101426	5.64E-05	-5.72E-05	0.000129703	7.25E-05	-8.45E-05	3.62E-05	-4.83E-05	-0.000249357	5.63E-05	-0.000193104	0.000243169	-0.000189434	5.37E-05	0.000240938	-0.000190395	5.05E-05	1.42E-17	-2.30E-17	-8.74E-18	-7.51E-05	4.23E-05	-3.28E-05	-0.000466859	0.000265806	-0.000201053	-0.000550586	0.000293736	-0.000256851	0.000310784	-0.000204201	0.000106582	0.000596488	-0.000578041	1.84E-05	0.000340919	-0.00027119	6.97E-05	7.82E-05	5.89E-05	0.000137116	-0.000118764	0.000153894	3.51E-05	-4.52E-05	0.00010305	5.78E-05	-0.000166943	0.000246862	7.99E-05	7.56E-20	9.14E-19	9.89E-19	-0.000115323	-2.82E-05	-0.000143529	-0.000141879	3.36E-05	-0.00010831	-3.30E-05	-0.000128374	-0.000161368	-0.000154613	-1.08E-05	-0.000165392	-8.66E-05	0.000113537	2.70E-05	3.92E-05	-3.40E-06	3.58E-05	-3.82E-05	-3.99E-06	-4.22E-05	0.000139192	-0.00024195	-0.000102758	-9.79E-05	2.50E-05	-7.28E-05	-8.54E-05	-5.41E-07	-8.59E-05	5.08E-19	6.18E-19	1.13E-18	-6.86E-05	1.15E-06	-6.74E-05	-0.000109695	-7.39E-05	-0.000183614	-0.000318631	-4.51E-06	-0.000323139	-0.000178277	0.000111335	-6.69E-05	-0.000225441	0.000134455	-9.10E-05	-9.41E-05	-3.13E-05	-0.00012542	-9.86E-05	-2.58E-05	-0.000124394	1.29E-05	4.08E-05	5.37E-05	1
1.44	-3.67E-06	1.64E-05	1.28E-05	-1.33E-05	2.29E-05	9.67E-06	4.73E-17	-4.30E-18	4.30E-17	0.000170331	-5.86E-05	0.000111765	0.000438335	-0.000462047	-2.37E-05	0.000223554	-0.000171875	5.17E-05	0.000101388	5.65E-05	0.000157848	-4.34E-05	0.000101767	5.83E-05	-5.55E-05	0.000129175	7.37E-05	-8.42E-05	3.52E-05	-4.90E-05	-0.000249663	5.05E-05	-0.000199194	0.00025208	-0.000194078	5.80E-05	0.000250288	-0.000195077	5.52E-05	1.82E-17	-2.04E-17	-2.21E-18	-7.24E-05	3.97E-05	-3.27E-05	-0.000469448	0.000261875	-0.000207573	-0.00054857	0.000284012	-0.000264558	0.000321403	-0.000209735	0.000111668	0.000612028	-0.000591045	2.10E-05	0.000352082	-0.000279512	7.26E-05	8.11E-05	5.95E-05	0.000140593	-0.000120492	0.000155976	3.55E-05	-4.76E-05	0.00010564	5.80E-05	-0.000171695	0.000251806	8.01E-05	2.52E-19	1.30E-18	1.55E-18	-0.000119397	-2.83E-05	-0.000147664	-0.000148242	3.82E-05	-0.000110055	-3.63E-05	-0.000128857	-0.00016515	-0.000158722	-1.14E-05	-0.000170159	-9.09E-05	0.000115034	2.42E-05	3.93E-05	-4.61E-06	3.47E-05	-3.97E-05	-4.12E-06	-4.38E-05	0.000142613	-0.000246	-0.000103387	-0.000100923	2.82E-05	-7.27E-05	-8.95E-05	1.39E-06	-8.81E-05	3.66E-19	7.84E-19	1.15E-18	-6.93E-05	1.49E-06	-6.78E-05	-0.000109975	-7.53E-05	-0.000185271	-0.000321573	-2.94E-06	-0.000324516	-0.000188588	0.000123324	-6.53E-05	-0.00023809	0.000150184	-8.79E-05	-0.000102324	-2.41E-05	-0.000126443	-0.000103163	-2.66E-05	-0.000129736	7.28E-06	4.26E-05	4.99E-05	1
1.48	-4.41E-06	2.00E-05	1.56E-05	-1.26E-05	2.46E-05	1.20E-05	5.15E-17	-6.78E-18	4.47E-17	0.000175976	-6.02E-05	0.000115814	0.000452588	-0.00047305	-2.05E-05	0.00023194	-0.000177157	5.48E-05	0.000105171	5.63E-05	0.000161486	-4.18E-05	0.000102155	6.03E-05	-5.36E-05	0.000128567	7.50E-05	-8.38E-05	3.41E-05	-4.97E-05	-0.000249618	4.44E-05	-0.000205198	0.000260883	-0.000198618	6.23E-05	0.000259557	-0.000199668	5.99E-05	2.21E-17	-1.77E-17	4.34E-18	-6.97E-05	3.70E-05	-3.27E-05	-0.000471345	0.000257661	-0.000213684	-0.000545806	0.000273811	-0.000271994	0.000331905	-0.000215187	0.000116719	0.000627585	-0.000604218	2.34E-05	0.000363129	-0.000287768	7.54E-05	8.39E-05	6.01E-05	0.000144068	-0.000122204	0.000158117	3.59E-05	-4.98E-05	0.000108098	5.83E-05	-0.000176268	0.000256699	8.04E-05	4.18E-19	1.66E-18	2.08E-18	-0.000123518	-2.84E-05	-0.00015187	-0.000154724	4.30E-05	-0.000111758	-3.97E-05	-0.00012929	-0.000168963	-0.000162904	-1.22E-05	-0.000175062	-9.52E-05	0.000116573	2.14E-05	3.94E-05	-5.91E-06	3.35E-05	-4.11E-05	-4.39E-06	-4.55E-05	0.000146302	-0.000250435	-0.000104133	-0.00010414	3.17E-05	-7.25E-05	-9.38E-05	3.50E-06	-9.03E-05	2.22E-19	9.38E-19	1.16E-18	-7.00E-05	1.76E-06	-6.82E-05	-0.000110128	-7.69E-05	-0.000187045	-0.000324457	-1.52E-06	-0.000325976	-0.000199182	0.000135495	-6.37E-05	-0.000251351	0.000166146	-8.52E-05	-0.000110758	-1.68E-05	-0.000127567	-0.000107926	-2.74E-05	-0.000135301	1.38E-06	4.45E-05	4.58E-05	1
